Time - Sim theta,Amplitude - Sim theta,Time - encoder theta,Amplitude - encoder theta,Time - reference input,Amplitude - reference input
0,0.0330779,0,0,0,0.5
1,0.0859306,1,0.0107379,1,0.5
2,0.147726,2,0.0490874,2,0.5
3,0.210945,3,0.105845,3,0.5
4,0.270693,4,0.168738,4,0.5
5,0.324093,5,0.231631,5,0.5
6,0.369757,6,0.291456,6,0.5
7,0.407335,7,0.343612,7,0.5
8,0.437169,8,0.386563,8,0.5
9,0.460021,9,0.421845,9,0.5
10,0.476859,10,0.449456,10,0.5
11,0.488721,11,0.469398,11,0.5
12,0.496613,12,0.483204,12,0.5
13,0.501454,13,0.492408,13,0.5
14,0.504042,14,0.49701,14,0.5
15,0.50504,15,0.500078,15,0.5
16,0.504978,16,0.500078,16,0.5
17,0.504271,17,0.500078,17,0.5
18,0.50322,18,0.500078,18,0.5
19,0.502042,19,0.500078,19,0.5
20,0.500878,20,0.500078,20,0.5
21,0.499818,21,0.500078,21,0.5
22,0.498911,22,0.500078,22,0.5
23,0.498176,23,0.500078,23,0.5
24,0.497613,24,0.500078,24,0.5
25,0.49721,25,0.500078,25,0.5
26,0.496948,26,0.500078,26,0.5
27,0.496803,27,0.500078,27,0.5
28,0.496754,28,0.500078,28,0.5
29,0.496779,29,0.500078,29,0.5
30,0.496859,30,0.500078,30,0.5
31,0.496977,31,0.500078,31,0.5
32,0.49712,32,0.500078,32,0.5
33,0.497277,33,0.500078,33,0.5
34,0.497439,34,0.500078,34,0.5
35,0.497602,35,0.500078,35,0.5
36,0.497761,36,0.500078,36,0.5
37,0.497912,37,0.500078,37,0.5
38,0.498054,38,0.500078,38,0.5
39,0.498187,39,0.500078,39,0.5
40,0.49831,40,0.500078,40,0.5
41,0.498423,41,0.500078,41,0.5
42,0.498528,42,0.500078,42,0.5
43,0.498623,43,0.500078,43,0.5
44,0.498712,44,0.500078,44,0.5
45,0.498793,45,0.500078,45,0.5
46,0.498868,46,0.500078,46,0.5
47,0.498937,47,0.500078,47,0.5
48,0.499001,48,0.500078,48,0.5
49,0.499061,49,0.500078,49,0.5
50,0.499117,50,0.500078,50,0.5
51,0.499169,51,0.500078,51,0.5
52,0.499218,52,0.500078,52,0.5
53,0.499264,53,0.500078,53,0.5
54,0.499307,54,0.500078,54,0.5
55,0.499348,55,0.500078,55,0.5
56,0.499386,56,0.500078,56,0.5
57,0.499422,57,0.500078,57,0.5
58,0.499456,58,0.500078,58,0.5
59,0.499487,59,0.500078,59,0.5
60,0.499518,60,0.500078,60,0.5
61,0.499546,61,0.500078,61,0.5
62,0.499573,62,0.500078,62,0.5
63,0.499598,63,0.500078,63,0.5
64,0.499621,64,0.500078,64,0.5
65,0.499644,65,0.500078,65,0.5
66,0.499665,66,0.500078,66,0.5
67,0.499684,67,0.500078,67,0.5
68,0.499703,68,0.500078,68,0.5
69,0.499721,69,0.500078,69,0.5
70,0.499737,70,0.500078,70,0.5
71,0.499753,71,0.500078,71,0.5
72,0.499767,72,0.500078,72,0.5
73,0.499781,73,0.500078,73,0.5
74,0.499794,74,0.500078,74,0.5
75,0.499806,75,0.500078,75,0.5
76,0.499817,76,0.500078,76,0.5
77,0.499828,77,0.500078,77,0.5
78,0.499838,78,0.500078,78,0.5
79,0.499848,79,0.500078,79,0.5
80,0.499857,80,0.500078,80,0.5
81,0.499865,81,0.500078,81,0.5
82,0.499873,82,0.500078,82,0.5
83,0.499881,83,0.500078,83,0.5
84,0.499888,84,0.500078,84,0.5
85,0.499894,85,0.500078,85,0.5
86,0.499901,86,0.500078,86,0.5
87,0.499907,87,0.500078,87,0.5
88,0.499912,88,0.500078,88,0.5
89,0.499917,89,0.500078,89,0.5
90,0.499922,90,0.500078,90,0.5
91,0.499927,91,0.500078,91,0.5
92,0.499931,92,0.500078,92,0.5
93,0.499935,93,0.500078,93,0.5
94,0.499939,94,0.500078,94,0.5
95,0.499943,95,0.500078,95,0.5
96,0.499946,96,0.500078,96,0.5
97,0.499949,97,0.500078,97,0.5
98,0.499952,98,0.500078,98,0.5
99,0.499955,99,0.500078,99,0.5
100,0.499958,100,0.500078,100,0.5
101,0.49996,101,0.500078,101,0.5
102,0.499962,102,0.500078,102,0.5
103,0.499965,103,0.500078,103,0.5
104,0.499967,104,0.500078,104,0.5
105,0.499969,105,0.500078,105,0.5
106,0.499971,106,0.500078,106,0.5
107,0.499972,107,0.500078,107,0.5
108,0.499974,108,0.500078,108,0.5
109,0.499975,109,0.500078,109,0.5
110,0.499977,110,0.500078,110,0.5
111,0.499978,111,0.500078,111,0.5
112,0.49998,112,0.500078,112,0.5
113,0.499981,113,0.500078,113,0.5
114,0.499982,114,0.500078,114,0.5
115,0.499983,115,0.500078,115,0.5
116,0.499984,116,0.500078,116,0.5
117,0.499985,117,0.500078,117,0.5
118,0.499986,118,0.500078,118,0.5
119,0.499987,119,0.500078,119,0.5
120,0.499987,120,0.500078,120,0.5
121,0.499988,121,0.500078,121,0.5
122,0.499989,122,0.500078,122,0.5
123,0.49999,123,0.500078,123,0.5
124,0.49999,124,0.500078,124,0.5
125,0.499991,125,0.500078,125,0.5
126,0.499991,126,0.500078,126,0.5
127,0.499992,127,0.500078,127,0.5
128,0.499992,128,0.500078,128,0.5
129,0.499993,129,0.500078,129,0.5
130,0.499993,130,0.500078,130,0.5
131,0.499994,131,0.500078,131,0.5
132,0.499994,132,0.500078,132,0.5
133,0.499994,133,0.500078,133,0.5
134,0.499995,134,0.500078,134,0.5
135,0.499995,135,0.500078,135,0.5
136,0.499995,136,0.500078,136,0.5
137,0.499996,137,0.500078,137,0.5
138,0.499996,138,0.500078,138,0.5
139,0.499996,139,0.500078,139,0.5
140,0.499996,140,0.500078,140,0.5
141,0.499996,141,0.500078,141,0.5
142,0.499997,142,0.500078,142,0.5
143,0.499997,143,0.500078,143,0.5
144,0.499997,144,0.500078,144,0.5
145,0.499997,145,0.500078,145,0.5
146,0.499997,146,0.500078,146,0.5
147,0.499998,147,0.500078,147,0.5
148,0.499998,148,0.500078,148,0.5
149,0.499998,149,0.500078,149,0.5
150,0.499998,150,0.500078,150,0.5
151,0.499998,151,0.500078,151,0.5
152,0.499998,152,0.500078,152,0.5
153,0.499998,153,0.500078,153,0.5
154,0.499998,154,0.500078,154,0.5
155,0.499999,155,0.500078,155,0.5
156,0.499999,156,0.500078,156,0.5
157,0.499999,157,0.500078,157,0.5
158,0.499999,158,0.500078,158,0.5
159,0.499999,159,0.500078,159,0.5
160,0.499999,160,0.500078,160,0.5
161,0.499999,161,0.500078,161,0.5
162,0.499999,162,0.500078,162,0.5
163,0.499999,163,0.500078,163,0.5
164,0.499999,164,0.500078,164,0.5
165,0.499999,165,0.500078,165,0.5
166,0.499999,166,0.500078,166,0.5
167,0.499999,167,0.500078,167,0.5
168,0.499999,168,0.500078,168,0.5
169,0.499999,169,0.500078,169,0.5
170,0.499999,170,0.500078,170,0.5
171,0.499999,171,0.500078,171,0.5
172,0.499999,172,0.500078,172,0.5
173,0.499999,173,0.500078,173,0.5
174,0.5,174,0.500078,174,0.5
175,0.5,175,0.500078,175,0.5
176,0.5,176,0.500078,176,0.5
177,0.5,177,0.500078,177,0.5
178,0.5,178,0.500078,178,0.5
179,0.5,179,0.500078,179,0.5
180,0.5,180,0.500078,180,0.5
181,0.5,181,0.500078,181,0.5
182,0.5,182,0.500078,182,0.5
183,0.5,183,0.500078,183,0.5
184,0.5,184,0.500078,184,0.5
185,0.5,185,0.500078,185,0.5
186,0.5,186,0.500078,186,0.5
187,0.5,187,0.500078,187,0.5
188,0.5,188,0.500078,188,0.5
189,0.5,189,0.500078,189,0.5
190,0.5,190,0.500078,190,0.5
191,0.5,191,0.500078,191,0.5
192,0.5,192,0.500078,192,0.5
193,0.5,193,0.500078,193,0.5
194,0.5,194,0.500078,194,0.5
195,0.5,195,0.500078,195,0.5
196,0.5,196,0.500078,196,0.5
197,0.5,197,0.500078,197,0.5
198,0.5,198,0.500078,198,0.5
199,0.5,199,0.500078,199,0.5
200,0.5,200,0.500078,200,0.5
201,0.5,201,0.500078,201,0.5
202,0.5,202,0.500078,202,0.5
203,0.5,203,0.500078,203,0.5
204,0.5,204,0.500078,204,0.5
205,0.5,205,0.500078,205,0.5
206,0.5,206,0.500078,206,0.5
207,0.5,207,0.500078,207,0.5
208,0.5,208,0.500078,208,0.5
209,0.5,209,0.500078,209,0.5
210,0.5,210,0.500078,210,0.5
211,0.5,211,0.500078,211,0.5
212,0.5,212,0.500078,212,0.5
213,0.5,213,0.500078,213,0.5
214,0.5,214,0.500078,214,0.5
215,0.5,215,0.500078,215,0.5
216,0.5,216,0.500078,216,0.5
217,0.5,217,0.500078,217,0.5
218,0.5,218,0.500078,218,0.5
219,0.5,219,0.500078,219,0.5
220,0.5,220,0.500078,220,0.5
221,0.5,221,0.500078,221,0.5
222,0.5,222,0.500078,222,0.5
223,0.5,223,0.500078,223,0.5
224,0.5,224,0.500078,224,0.5
225,0.5,225,0.500078,225,0.5
226,0.5,226,0.500078,226,0.5
227,0.5,227,0.500078,227,0.5
228,0.5,228,0.500078,228,0.5
229,0.5,229,0.500078,229,0.5
230,0.5,230,0.500078,230,0.5
231,0.5,231,0.500078,231,0.5
232,0.5,232,0.500078,232,0.5
233,0.5,233,0.500078,233,0.5
234,0.5,234,0.500078,234,0.5
235,0.5,235,0.500078,235,0.5
236,0.5,236,0.500078,236,0.5
237,0.5,237,0.500078,237,0.5
238,0.5,238,0.500078,238,0.5
239,0.5,239,0.500078,239,0.5
240,0.5,240,0.500078,240,0.5
241,0.5,241,0.500078,241,0.5
242,0.5,242,0.500078,242,0.5
243,0.5,243,0.500078,243,0.5
244,0.5,244,0.500078,244,0.5
245,0.5,245,0.500078,245,0.5
246,0.5,246,0.500078,246,0.5
247,0.5,247,0.500078,247,0.5
248,0.5,248,0.500078,248,0.5
249,0.5,249,0.500078,249,0.5
250,0.433844,250,0.500078,250,-0.5
251,0.328139,251,0.467864,251,-0.5
252,0.204568,252,0.380427,252,-0.5
253,0.0781836,253,0.256175,253,-0.5
254,-0.0412227,254,0.136524,254,-0.5
255,-0.147934,255,0.00153398,255,-0.5
256,-0.239161,256,-0.113515,256,-0.5
257,-0.31423,257,-0.222427,257,-0.5
258,-0.37382,258,-0.303728,258,-0.5
259,-0.419466,259,-0.366621,259,-0.5
260,-0.453122,260,-0.420311,260,-0.5
261,-0.476852,261,-0.45866,261,-0.5
262,-0.492665,262,-0.48167,262,-0.5
263,-0.502399,263,-0.498544,263,-0.5
264,-0.507638,264,-0.506214,264,-0.5
265,-0.509706,265,-0.509282,265,-0.5
266,-0.509662,266,-0.510816,266,-0.5
267,-0.50832,267,-0.510816,267,-0.5
268,-0.506284,268,-0.509282,268,-0.5
269,-0.503984,269,-0.507748,269,-0.5
270,-0.50171,270,-0.506214,270,-0.5
271,-0.499638,271,-0.50468,271,-0.5
272,-0.497868,272,-0.50468,272,-0.5
273,-0.496436,273,-0.503146,273,-0.5
274,-0.495345,274,-0.503146,274,-0.5
275,-0.494567,275,-0.503146,275,-0.5
276,-0.494063,276,-0.503146,276,-0.5
277,-0.49379,277,-0.503146,277,-0.5
278,-0.493701,278,-0.503146,278,-0.5
279,-0.493755,279,-0.503146,279,-0.5
280,-0.493915,280,-0.503146,280,-0.5
281,-0.494148,281,-0.503146,281,-0.5
282,-0.494428,282,-0.503146,282,-0.5
283,-0.494735,283,-0.503146,283,-0.5
284,-0.495052,284,-0.503146,284,-0.5
285,-0.495369,285,-0.503146,285,-0.5
286,-0.495676,286,-0.503146,286,-0.5
287,-0.495969,287,-0.503146,287,-0.5
288,-0.496245,288,-0.503146,288,-0.5
289,-0.496502,289,-0.503146,289,-0.5
290,-0.496739,290,-0.503146,290,-0.5
291,-0.496958,291,-0.503146,291,-0.5
292,-0.497159,292,-0.503146,292,-0.5
293,-0.497344,293,-0.503146,293,-0.5
294,-0.497515,294,-0.503146,294,-0.5
295,-0.497671,295,-0.503146,295,-0.5
296,-0.497816,296,-0.503146,296,-0.5
297,-0.497949,297,-0.503146,297,-0.5
298,-0.498073,298,-0.503146,298,-0.5
299,-0.498189,299,-0.503146,299,-0.5
300,-0.498297,300,-0.503146,300,-0.5
301,-0.498397,301,-0.503146,301,-0.5
302,-0.498491,302,-0.503146,302,-0.5
303,-0.49858,303,-0.503146,303,-0.5
304,-0.498663,304,-0.503146,304,-0.5
305,-0.498741,305,-0.503146,305,-0.5
306,-0.498815,306,-0.503146,306,-0.5
307,-0.498884,307,-0.503146,307,-0.5
308,-0.498949,308,-0.503146,308,-0.5
309,-0.499011,309,-0.503146,309,-0.5
310,-0.499069,310,-0.503146,310,-0.5
311,-0.499124,311,-0.503146,311,-0.5
312,-0.499175,312,-0.503146,312,-0.5
313,-0.499224,313,-0.503146,313,-0.5
314,-0.499269,314,-0.503146,314,-0.5
315,-0.499312,315,-0.503146,315,-0.5
316,-0.499353,316,-0.503146,316,-0.5
317,-0.499391,317,-0.503146,317,-0.5
318,-0.499427,318,-0.503146,318,-0.5
319,-0.499461,319,-0.503146,319,-0.5
320,-0.499493,320,-0.503146,320,-0.5
321,-0.499523,321,-0.503146,321,-0.5
322,-0.499551,322,-0.503146,322,-0.5
323,-0.499577,323,-0.503146,323,-0.5
324,-0.499602,324,-0.503146,324,-0.5
325,-0.499626,325,-0.503146,325,-0.5
326,-0.499648,326,-0.503146,326,-0.5
327,-0.499669,327,-0.503146,327,-0.5
328,-0.499688,328,-0.503146,328,-0.5
329,-0.499707,329,-0.503146,329,-0.5
330,-0.499724,330,-0.503146,330,-0.5
331,-0.49974,331,-0.503146,331,-0.5
332,-0.499755,332,-0.503146,332,-0.5
333,-0.49977,333,-0.503146,333,-0.5
334,-0.499783,334,-0.503146,334,-0.5
335,-0.499796,335,-0.503146,335,-0.5
336,-0.499808,336,-0.503146,336,-0.5
337,-0.49982,337,-0.503146,337,-0.5
338,-0.49983,338,-0.503146,338,-0.5
339,-0.49984,339,-0.503146,339,-0.5
340,-0.49985,340,-0.503146,340,-0.5
341,-0.499859,341,-0.503146,341,-0.5
342,-0.499867,342,-0.503146,342,-0.5
343,-0.499875,343,-0.503146,343,-0.5
344,-0.499882,344,-0.503146,344,-0.5
345,-0.499889,345,-0.503146,345,-0.5
346,-0.499896,346,-0.503146,346,-0.5
347,-0.499902,347,-0.503146,347,-0.5
348,-0.499908,348,-0.503146,348,-0.5
349,-0.499913,349,-0.503146,349,-0.5
350,-0.499918,350,-0.503146,350,-0.5
351,-0.499923,351,-0.503146,351,-0.5
352,-0.499928,352,-0.503146,352,-0.5
353,-0.499932,353,-0.503146,353,-0.5
354,-0.499936,354,-0.503146,354,-0.5
355,-0.49994,355,-0.503146,355,-0.5
356,-0.499943,356,-0.503146,356,-0.5
357,-0.499947,357,-0.503146,357,-0.5
358,-0.49995,358,-0.503146,358,-0.5
359,-0.499953,359,-0.503146,359,-0.5
360,-0.499955,360,-0.503146,360,-0.5
361,-0.499958,361,-0.503146,361,-0.5
362,-0.499961,362,-0.503146,362,-0.5
363,-0.499963,363,-0.503146,363,-0.5
364,-0.499965,364,-0.503146,364,-0.5
365,-0.499967,365,-0.503146,365,-0.5
366,-0.499969,366,-0.503146,366,-0.5
367,-0.499971,367,-0.503146,367,-0.5
368,-0.499973,368,-0.503146,368,-0.5
369,-0.499974,369,-0.503146,369,-0.5
370,-0.499976,370,-0.503146,370,-0.5
371,-0.499977,371,-0.503146,371,-0.5
372,-0.499979,372,-0.503146,372,-0.5
373,-0.49998,373,-0.503146,373,-0.5
374,-0.499981,374,-0.503146,374,-0.5
375,-0.499982,375,-0.503146,375,-0.5
376,-0.499983,376,-0.503146,376,-0.5
377,-0.499984,377,-0.503146,377,-0.5
378,-0.499985,378,-0.503146,378,-0.5
379,-0.499986,379,-0.503146,379,-0.5
380,-0.499987,380,-0.503146,380,-0.5
381,-0.499988,381,-0.503146,381,-0.5
382,-0.499988,382,-0.503146,382,-0.5
383,-0.499989,383,-0.503146,383,-0.5
384,-0.49999,384,-0.503146,384,-0.5
385,-0.49999,385,-0.503146,385,-0.5
386,-0.499991,386,-0.503146,386,-0.5
387,-0.499991,387,-0.503146,387,-0.5
388,-0.499992,388,-0.503146,388,-0.5
389,-0.499992,389,-0.503146,389,-0.5
390,-0.499993,390,-0.503146,390,-0.5
391,-0.499993,391,-0.503146,391,-0.5
392,-0.499994,392,-0.503146,392,-0.5
393,-0.499994,393,-0.503146,393,-0.5
394,-0.499994,394,-0.503146,394,-0.5
395,-0.499995,395,-0.503146,395,-0.5
396,-0.499995,396,-0.503146,396,-0.5
397,-0.499995,397,-0.503146,397,-0.5
398,-0.499996,398,-0.503146,398,-0.5
399,-0.499996,399,-0.503146,399,-0.5
400,-0.499996,400,-0.503146,400,-0.5
401,-0.499996,401,-0.503146,401,-0.5
402,-0.499997,402,-0.503146,402,-0.5
403,-0.499997,403,-0.503146,403,-0.5
404,-0.499997,404,-0.503146,404,-0.5
405,-0.499997,405,-0.503146,405,-0.5
406,-0.499997,406,-0.503146,406,-0.5
407,-0.499997,407,-0.503146,407,-0.5
408,-0.499998,408,-0.503146,408,-0.5
409,-0.499998,409,-0.503146,409,-0.5
410,-0.499998,410,-0.503146,410,-0.5
411,-0.499998,411,-0.503146,411,-0.5
412,-0.499998,412,-0.503146,412,-0.5
413,-0.499998,413,-0.503146,413,-0.5
414,-0.499998,414,-0.503146,414,-0.5
415,-0.499998,415,-0.503146,415,-0.5
416,-0.499999,416,-0.503146,416,-0.5
417,-0.499999,417,-0.503146,417,-0.5
418,-0.499999,418,-0.503146,418,-0.5
419,-0.499999,419,-0.503146,419,-0.5
420,-0.499999,420,-0.503146,420,-0.5
421,-0.499999,421,-0.503146,421,-0.5
422,-0.499999,422,-0.503146,422,-0.5
423,-0.499999,423,-0.503146,423,-0.5
424,-0.499999,424,-0.503146,424,-0.5
425,-0.499999,425,-0.503146,425,-0.5
426,-0.499999,426,-0.503146,426,-0.5
427,-0.499999,427,-0.503146,427,-0.5
428,-0.499999,428,-0.503146,428,-0.5
429,-0.499999,429,-0.503146,429,-0.5
430,-0.499999,430,-0.503146,430,-0.5
431,-0.499999,431,-0.503146,431,-0.5
432,-0.499999,432,-0.503146,432,-0.5
433,-0.499999,433,-0.503146,433,-0.5
434,-0.5,434,-0.503146,434,-0.5
435,-0.5,435,-0.503146,435,-0.5
436,-0.5,436,-0.503146,436,-0.5
437,-0.5,437,-0.503146,437,-0.5
438,-0.5,438,-0.503146,438,-0.5
439,-0.5,439,-0.503146,439,-0.5
440,-0.5,440,-0.503146,440,-0.5
441,-0.5,441,-0.503146,441,-0.5
442,-0.5,442,-0.503146,442,-0.5
443,-0.5,443,-0.503146,443,-0.5
444,-0.5,444,-0.503146,444,-0.5
445,-0.5,445,-0.503146,445,-0.5
446,-0.5,446,-0.503146,446,-0.5
447,-0.5,447,-0.503146,447,-0.5
448,-0.5,448,-0.503146,448,-0.5
449,-0.5,449,-0.503146,449,-0.5
450,-0.5,450,-0.503146,450,-0.5
451,-0.5,451,-0.503146,451,-0.5
452,-0.5,452,-0.503146,452,-0.5
453,-0.5,453,-0.503146,453,-0.5
454,-0.5,454,-0.503146,454,-0.5
455,-0.5,455,-0.503146,455,-0.5
456,-0.5,456,-0.503146,456,-0.5
457,-0.5,457,-0.503146,457,-0.5
458,-0.5,458,-0.503146,458,-0.5
459,-0.5,459,-0.503146,459,-0.5
460,-0.5,460,-0.503146,460,-0.5
461,-0.5,461,-0.503146,461,-0.5
462,-0.5,462,-0.503146,462,-0.5
463,-0.5,463,-0.503146,463,-0.5
464,-0.5,464,-0.503146,464,-0.5
465,-0.5,465,-0.503146,465,-0.5
466,-0.5,466,-0.503146,466,-0.5
467,-0.5,467,-0.503146,467,-0.5
468,-0.5,468,-0.503146,468,-0.5
469,-0.5,469,-0.503146,469,-0.5
470,-0.5,470,-0.503146,470,-0.5
471,-0.5,471,-0.503146,471,-0.5
472,-0.5,472,-0.503146,472,-0.5
473,-0.5,473,-0.503146,473,-0.5
474,-0.5,474,-0.503146,474,-0.5
475,-0.5,475,-0.503146,475,-0.5
476,-0.5,476,-0.503146,476,-0.5
477,-0.5,477,-0.503146,477,-0.5
478,-0.5,478,-0.503146,478,-0.5
479,-0.5,479,-0.503146,479,-0.5
480,-0.5,480,-0.503146,480,-0.5
481,-0.5,481,-0.503146,481,-0.5
482,-0.5,482,-0.503146,482,-0.5
483,-0.5,483,-0.503146,483,-0.5
484,-0.5,484,-0.503146,484,-0.5
485,-0.5,485,-0.503146,485,-0.5
486,-0.5,486,-0.503146,486,-0.5
487,-0.5,487,-0.503146,487,-0.5
488,-0.5,488,-0.503146,488,-0.5
489,-0.5,489,-0.503146,489,-0.5
490,-0.5,490,-0.503146,490,-0.5
491,-0.5,491,-0.503146,491,-0.5
492,-0.5,492,-0.503146,492,-0.5
493,-0.5,493,-0.503146,493,-0.5
494,-0.5,494,-0.503146,494,-0.5
495,-0.5,495,-0.503146,495,-0.5
496,-0.5,496,-0.503146,496,-0.5
497,-0.5,497,-0.503146,497,-0.5
498,-0.5,498,-0.503146,498,-0.5
499,-0.5,499,-0.503146,499,-0.5
500,-0.433844,500,-0.503146,500,0.5
501,-0.328139,501,-0.46633,501,0.5
502,-0.204577,502,-0.383495,502,0.5
503,-0.0781973,503,-0.260777,503,0.5
504,0.0412105,504,-0.13499,504,0.5
505,0.147915,505,0.00613592,505,0.5
506,0.239119,506,0.102777,506,0.5
507,0.314192,507,0.214757,507,0.5
508,0.373798,508,0.303728,508,0.5
509,0.41945,509,0.369689,509,0.5
510,0.453099,510,0.421845,510,0.5
511,0.476819,511,0.461728,511,0.5
512,0.492618,512,0.484738,512,0.5
513,0.502336,513,0.500078,513,0.5
514,0.507563,514,0.509282,514,0.5
515,0.50962,515,0.51235,515,0.5
516,0.509566,516,0.51235,516,0.5
517,0.50822,517,0.51235,517,0.5
518,0.506183,518,0.510816,518,0.5
519,0.503886,519,0.509282,519,0.5
520,0.501616,520,0.506214,520,0.5
521,0.499553,521,0.50468,521,0.5
522,0.497793,522,0.503146,522,0.5
523,0.496375,523,0.501612,523,0.5
524,0.495299,524,0.501612,524,0.5
525,0.494536,525,0.500078,525,0.5
526,0.494049,526,0.500078,526,0.5
527,0.493792,527,0.500078,527,0.5
528,0.493718,528,0.500078,528,0.5
529,0.493784,529,0.500078,529,0.5
530,0.493954,530,0.500078,530,0.5
531,0.494194,531,0.500078,531,0.5
532,0.49448,532,0.500078,532,0.5
533,0.494789,533,0.500078,533,0.5
534,0.495108,534,0.500078,534,0.5
535,0.495425,535,0.500078,535,0.5
536,0.495731,536,0.500078,536,0.5
537,0.496023,537,0.500078,537,0.5
538,0.496296,538,0.500078,538,0.5
539,0.49655,539,0.500078,539,0.5
540,0.496785,540,0.500078,540,0.5
541,0.497001,541,0.500078,541,0.5
542,0.4972,542,0.500078,542,0.5
543,0.497382,543,0.500078,543,0.5
544,0.49755,544,0.500078,544,0.5
545,0.497704,545,0.500078,545,0.5
546,0.497846,546,0.500078,546,0.5
547,0.497978,547,0.500078,547,0.5
548,0.4981,548,0.500078,548,0.5
549,0.498214,549,0.500078,549,0.5
550,0.49832,550,0.500078,550,0.5
551,0.498419,551,0.500078,551,0.5
552,0.498512,552,0.500078,552,0.5
553,0.498599,553,0.500078,553,0.5
554,0.498681,554,0.500078,554,0.5
555,0.498758,555,0.500078,555,0.5
556,0.498831,556,0.500078,556,0.5
557,0.498899,557,0.500078,557,0.5
558,0.498964,558,0.500078,558,0.5
559,0.499024,559,0.500078,559,0.5
560,0.499081,560,0.500078,560,0.5
561,0.499135,561,0.500078,561,0.5
562,0.499186,562,0.500078,562,0.5
563,0.499234,563,0.500078,563,0.5
564,0.499279,564,0.500078,564,0.5
565,0.499322,565,0.500078,565,0.5
566,0.499362,566,0.500078,566,0.5
567,0.499399,567,0.500078,567,0.5
568,0.499435,568,0.500078,568,0.5
569,0.499468,569,0.500078,569,0.5
570,0.499499,570,0.500078,570,0.5
571,0.499529,571,0.500078,571,0.5
572,0.499557,572,0.500078,572,0.5
573,0.499583,573,0.500078,573,0.5
574,0.499608,574,0.500078,574,0.5
575,0.499631,575,0.500078,575,0.5
576,0.499653,576,0.500078,576,0.5
577,0.499673,577,0.500078,577,0.5
578,0.499692,578,0.500078,578,0.5
579,0.49971,579,0.500078,579,0.5
580,0.499728,580,0.500078,580,0.5
581,0.499744,581,0.500078,581,0.5
582,0.499759,582,0.500078,582,0.5
583,0.499773,583,0.500078,583,0.5
584,0.499786,584,0.500078,584,0.5
585,0.499799,585,0.500078,585,0.5
586,0.499811,586,0.500078,586,0.5
587,0.499822,587,0.500078,587,0.5
588,0.499833,588,0.500078,588,0.5
589,0.499842,589,0.500078,589,0.5
590,0.499852,590,0.500078,590,0.5
591,0.49986,591,0.500078,591,0.5
592,0.499869,592,0.500078,592,0.5
593,0.499876,593,0.500078,593,0.5
