Time - Sim theta,Amplitude - Sim theta,Time - encoder theta,Amplitude - encoder theta,Time - reference input,Amplitude - reference input
0,0,0,0,0,0
1,0.000264623,1,0,1,0.004
2,0.000952068,2,0,2,0.008
3,0.00213405,3,0,3,0.012
4,0.00382265,4,0,4,0.016
5,0.00599132,5,0.00153398,5,0.02
6,0.0085878,6,0.00153398,6,0.024
7,0.0115533,7,0.00306796,7,0.028
8,0.0148224,8,0.00306796,8,0.032
9,0.0183366,9,0.00613592,9,0.036
10,0.0220357,10,0.0076699,10,0.04
11,0.0258727,11,0.0107379,11,0.044
12,0.0298052,12,0.0138058,12,0.048
13,0.0338004,13,0.0153398,13,0.052
14,0.0378361,14,0.0199418,14,0.056
15,0.0418897,15,0.0230097,15,0.06
16,0.0459488,16,0.0260777,16,0.064
17,0.0500056,17,0.0291456,17,0.068
18,0.0540551,18,0.0322136,18,0.072
19,0.0580949,19,0.0368155,19,0.076
20,0.0621212,20,0.0398835,20,0.08
21,0.0661358,21,0.0444854,21,0.084
22,0.0701376,22,0.0490874,22,0.088
23,0.0741271,23,0.0536893,23,0.092
24,0.0781056,24,0.0582913,24,0.096
25,0.082075,25,0.0613592,25,0.1
26,0.0860403,26,0.0659612,26,0.104
27,0.0900019,27,0.0705631,27,0.108
28,0.0939606,28,0.0751651,28,0.112
29,0.0979171,29,0.078233,29,0.116
30,0.101875,30,0.0843689,30,0.12
31,0.105832,31,0.0874369,31,0.124
32,0.109791,32,0.0920388,32,0.128
33,0.113751,33,0.0966408,33,0.132
34,0.117713,34,0.0997088,34,0.136
35,0.121678,35,0.104311,35,0.14
36,0.125647,36,0.107379,36,0.144
37,0.12962,37,0.111981,37,0.148
38,0.133596,38,0.116583,38,0.152
39,0.137573,39,0.121184,39,0.156
40,0.141551,40,0.124252,40,0.16
41,0.145531,41,0.128854,41,0.164
42,0.149512,42,0.131922,42,0.168
43,0.153497,43,0.136524,43,0.172
44,0.157483,44,0.141126,44,0.176
45,0.161469,45,0.144194,45,0.18
46,0.165458,46,0.148796,46,0.184
47,0.169447,47,0.151864,47,0.188
48,0.173438,48,0.156466,48,0.192
49,0.17743,49,0.161068,49,0.196
50,0.181421,50,0.164136,50,0.2
51,0.185413,51,0.168738,51,0.204
52,0.189406,52,0.17334,52,0.208
53,0.193397,53,0.177942,53,0.212
54,0.197387,54,0.18101,54,0.216
55,0.201379,55,0.185612,55,0.22
56,0.20537,56,0.18868,56,0.224
57,0.209364,57,0.193282,57,0.228
58,0.213358,58,0.19635,58,0.232
59,0.217354,59,0.199418,59,0.236
60,0.221354,60,0.204019,60,0.24
61,0.225354,61,0.208621,61,0.244
62,0.229353,62,0.211689,62,0.248
63,0.233353,63,0.216291,63,0.252
64,0.237353,64,0.220893,64,0.256
65,0.24135,65,0.223961,65,0.26
66,0.245348,66,0.228563,66,0.264
67,0.249345,67,0.233165,67,0.268
68,0.253341,68,0.236233,68,0.272
69,0.257337,69,0.240835,69,0.276
70,0.261334,70,0.245437,70,0.28
71,0.265328,71,0.248505,71,0.284
72,0.269325,72,0.253107,72,0.288
73,0.273321,73,0.256175,73,0.292
74,0.277318,74,0.259243,74,0.296
75,0.281319,75,0.263845,75,0.3
76,0.285321,76,0.268447,76,0.304
77,0.289321,77,0.271515,77,0.308
78,0.293322,78,0.276117,78,0.312
79,0.297323,79,0.279185,79,0.316
80,0.301325,80,0.283786,80,0.32
81,0.305325,81,0.288388,81,0.324
82,0.309324,82,0.291456,82,0.328
83,0.313324,83,0.296058,83,0.332
84,0.317323,84,0.299126,84,0.336
85,0.321323,85,0.303728,85,0.34
86,0.325323,86,0.306796,86,0.344
87,0.329324,87,0.311398,87,0.348
88,0.333324,88,0.316,88,0.352
89,0.337323,89,0.319068,89,0.356
90,0.341322,90,0.32367,90,0.36
91,0.345321,91,0.328272,91,0.364
92,0.349318,92,0.332874,92,0.368
93,0.353313,93,0.335942,93,0.372
94,0.357309,94,0.340544,94,0.376
95,0.361305,95,0.345146,95,0.38
96,0.365299,96,0.348214,96,0.384
97,0.369296,97,0.352816,97,0.388
98,0.373292,98,0.357418,98,0.392
99,0.377287,99,0.360485,99,0.396
100,0.381284,100,0.365087,100,0.4
101,0.385282,101,0.368155,101,0.404
102,0.389281,102,0.372757,102,0.408
103,0.393281,103,0.375825,103,0.412
104,0.397282,104,0.380427,104,0.416
105,0.401284,105,0.383495,105,0.42
106,0.405287,106,0.388097,106,0.424
107,0.40929,107,0.391165,107,0.428
108,0.413294,108,0.395767,108,0.432
109,0.417298,109,0.400369,109,0.436
110,0.421299,110,0.404971,110,0.44
111,0.425298,111,0.409573,111,0.444
112,0.429294,112,0.412641,112,0.448
113,0.433291,113,0.417243,113,0.452
114,0.437288,114,0.421845,114,0.456
115,0.441283,115,0.426447,115,0.46
116,0.445276,116,0.429515,116,0.464
117,0.449271,117,0.434117,117,0.468
118,0.453267,118,0.438719,118,0.472
119,0.457262,119,0.44332,119,0.476
120,0.461256,120,0.446388,120,0.48
121,0.465251,121,0.45099,121,0.484
122,0.469248,122,0.454058,122,0.488
123,0.473246,123,0.45866,123,0.492
124,0.477246,124,0.461728,124,0.496
125,0.481248,125,0.46633,125,0.5
126,0.484721,126,0.470932,126,0.496
127,0.487347,127,0.474,127,0.492
128,0.488986,128,0.475534,128,0.488
129,0.489616,129,0.478602,129,0.484
130,0.489292,130,0.478602,130,0.48
131,0.488115,131,0.478602,131,0.476
132,0.486209,132,0.478602,132,0.472
133,0.4837,133,0.478602,133,0.468
134,0.48071,134,0.478602,134,0.464
135,0.477346,135,0.478602,135,0.46
136,0.473704,136,0.477068,136,0.456
137,0.469863,137,0.475534,137,0.452
138,0.46589,138,0.474,138,0.448
139,0.461834,139,0.472466,139,0.444
140,0.457731,140,0.469398,140,0.44
141,0.453611,141,0.46633,141,0.436
142,0.449494,142,0.461728,142,0.432
143,0.445394,143,0.45866,143,0.428
144,0.441317,144,0.455592,144,0.424
145,0.437263,145,0.45099,145,0.42
146,0.433234,146,0.446388,146,0.416
147,0.42923,147,0.44332,147,0.412
148,0.425245,148,0.438719,148,0.408
149,0.421277,149,0.435651,149,0.404
150,0.417321,150,0.432583,150,0.4
151,0.413371,151,0.427981,151,0.396
152,0.409427,152,0.423379,152,0.392
153,0.405489,153,0.420311,153,0.388
154,0.401552,154,0.417243,154,0.384
155,0.397612,155,0.412641,155,0.38
156,0.393672,156,0.408039,156,0.376
157,0.389731,157,0.404971,157,0.372
158,0.385787,158,0.400369,158,0.368
159,0.381842,159,0.397301,159,0.364
160,0.377892,160,0.392699,160,0.36
161,0.37394,161,0.389631,161,0.356
162,0.369984,162,0.385029,162,0.352
163,0.366026,163,0.381961,163,0.348
164,0.362063,164,0.377359,164,0.344
165,0.358099,165,0.374291,165,0.34
166,0.354132,166,0.371223,166,0.336
167,0.35016,167,0.366621,167,0.332
168,0.346186,168,0.362019,168,0.328
169,0.342212,169,0.358952,169,0.324
170,0.338236,170,0.35435,170,0.32
171,0.33426,171,0.349748,171,0.316
172,0.330285,172,0.34668,172,0.312
173,0.326308,173,0.342078,173,0.308
174,0.322331,174,0.33901,174,0.304
175,0.318351,175,0.334408,175,0.3
176,0.314371,176,0.329806,176,0.296
177,0.310392,177,0.326738,177,0.292
178,0.30641,178,0.322136,178,0.288
179,0.302428,179,0.319068,179,0.284
180,0.298443,180,0.314466,180,0.28
181,0.294458,181,0.309864,181,0.276
182,0.290474,182,0.306796,182,0.272
183,0.286487,183,0.303728,183,0.268
184,0.282498,184,0.299126,184,0.264
185,0.278507,185,0.296058,185,0.26
186,0.274515,186,0.291456,186,0.256
187,0.270522,187,0.286854,187,0.252
188,0.266531,188,0.283786,188,0.248
189,0.262538,189,0.279185,189,0.244
190,0.258546,190,0.276117,190,0.24
191,0.254553,191,0.271515,191,0.236
192,0.250559,192,0.266913,192,0.232
193,0.246568,193,0.263845,193,0.228
194,0.242575,194,0.259243,194,0.224
195,0.238582,195,0.256175,195,0.22
196,0.234588,196,0.251573,196,0.216
197,0.230594,197,0.248505,197,0.212
198,0.226598,198,0.243903,198,0.208
199,0.222603,199,0.240835,199,0.204
200,0.218605,200,0.236233,200,0.2
201,0.214608,201,0.233165,201,0.196
202,0.21061,202,0.228563,202,0.192
203,0.206612,203,0.225495,203,0.188
204,0.202613,204,0.220893,204,0.184
205,0.198615,205,0.216291,205,0.18
206,0.194618,206,0.213223,206,0.176
207,0.190621,207,0.208621,207,0.172
208,0.186625,208,0.204019,208,0.168
209,0.18263,209,0.199418,209,0.164
210,0.178637,210,0.19635,210,0.16
211,0.174644,211,0.193282,211,0.156
212,0.170648,212,0.18868,212,0.152
213,0.166651,213,0.184078,213,0.148
214,0.162655,214,0.18101,214,0.144
215,0.158658,215,0.176408,215,0.14
216,0.154661,216,0.171806,216,0.136
217,0.150665,217,0.167204,217,0.132
218,0.146671,218,0.164136,218,0.128
219,0.142676,219,0.159534,219,0.124
220,0.138681,220,0.156466,220,0.12
221,0.134685,221,0.151864,221,0.116
222,0.130687,222,0.148796,222,0.112
223,0.126688,223,0.144194,223,0.108
224,0.122689,224,0.139592,224,0.104
225,0.118691,225,0.136524,225,0.1
226,0.114692,226,0.131922,226,0.096
227,0.110693,227,0.128854,227,0.092
228,0.106692,228,0.124252,228,0.088
229,0.102692,229,0.121184,229,0.084
230,0.0986904,230,0.116583,230,0.08
231,0.0946892,231,0.111981,231,0.076
232,0.0906897,232,0.108913,232,0.072
233,0.0866893,233,0.104311,233,0.068
234,0.0826898,234,0.101243,234,0.064
235,0.0786889,235,0.0966408,235,0.06
236,0.0746886,236,0.0920388,236,0.056
237,0.0706899,237,0.0889709,237,0.052
238,0.0666903,238,0.0843689,238,0.048
239,0.0626914,239,0.079767,239,0.044
240,0.0586941,240,0.076699,240,0.04
241,0.0546957,241,0.0720971,241,0.036
242,0.0506978,242,0.0690291,242,0.032
243,0.0466982,243,0.0644272,243,0.028
244,0.0426988,244,0.0598253,244,0.024
245,0.0387007,245,0.0552233,245,0.02
246,0.0347044,246,0.0521553,246,0.016
247,0.030707,247,0.0475534,247,0.012
248,0.0267101,248,0.0429515,248,0.008
249,0.0227142,249,0.0383495,249,0.004
250,0.0187199,250,0.0352816,250,0
251,0.0147241,251,0.0306796,251,-0.004
252,0.0107282,252,0.0276117,252,-0.008
253,0.00672993,253,0.0230097,253,-0.012
254,0.00273127,254,0.0199418,254,-0.016
255,-0.00126969,255,0.0153398,255,-0.02
256,-0.00527084,256,0.0107379,256,-0.024
257,-0.00927088,257,0.0076699,257,-0.028
258,-0.0132722,258,0.00306796,258,-0.032
259,-0.017273,259,0,259,-0.036
260,-0.0212754,260,-0.00460194,260,-0.04
261,-0.0252774,261,-0.00920388,261,-0.044
262,-0.0292779,262,-0.0122718,262,-0.048
263,-0.0332792,263,-0.0168738,263,-0.052
264,-0.0372799,264,-0.0214757,264,-0.056
265,-0.041279,265,-0.0245437,265,-0.06
266,-0.045279,266,-0.0291456,266,-0.064
267,-0.0492785,267,-0.0337476,267,-0.068
268,-0.0532766,268,-0.0368155,268,-0.072
269,-0.0572759,269,-0.0414175,269,-0.076
270,-0.0612748,270,-0.0460194,270,-0.08
271,-0.0652725,271,-0.0490874,271,-0.084
272,-0.0692716,272,-0.0521553,272,-0.088
273,-0.0732734,273,-0.0567573,273,-0.092
274,-0.0772757,274,-0.0613592,274,-0.096
275,-0.0812769,275,-0.0644272,275,-0.1
276,-0.0852792,276,-0.0690291,276,-0.104
277,-0.0892809,277,-0.0720971,277,-0.108
278,-0.093284,278,-0.076699,278,-0.112
279,-0.0972864,279,-0.079767,279,-0.116
280,-0.10129,280,-0.0843689,280,-0.12
281,-0.105293,281,-0.0889709,281,-0.124
282,-0.109294,282,-0.0920388,282,-0.128
283,-0.113296,283,-0.0966408,283,-0.132
284,-0.117297,284,-0.0997088,284,-0.136
285,-0.121298,285,-0.104311,285,-0.14
286,-0.1253,286,-0.108913,286,-0.144
287,-0.129299,287,-0.111981,287,-0.148
288,-0.133299,288,-0.115049,288,-0.152
289,-0.137302,289,-0.119651,289,-0.156
290,-0.141304,290,-0.124252,290,-0.16
291,-0.145305,291,-0.128854,291,-0.164
292,-0.149304,292,-0.133456,292,-0.168
293,-0.1533,293,-0.136524,293,-0.172
294,-0.157297,294,-0.141126,294,-0.176
295,-0.161294,295,-0.144194,295,-0.18
296,-0.165292,296,-0.148796,296,-0.184
297,-0.16929,297,-0.151864,297,-0.188
298,-0.17329,298,-0.156466,298,-0.192
299,-0.17729,299,-0.159534,299,-0.196
300,-0.181292,300,-0.164136,300,-0.2
301,-0.185294,301,-0.168738,301,-0.204
302,-0.189294,302,-0.171806,302,-0.208
303,-0.193296,303,-0.174874,303,-0.212
304,-0.197299,304,-0.179476,304,-0.216
305,-0.201302,305,-0.182544,305,-0.22
306,-0.205307,306,-0.187146,306,-0.224
307,-0.209311,307,-0.191748,307,-0.228
308,-0.213313,308,-0.194816,308,-0.232
309,-0.217315,309,-0.199418,309,-0.236
310,-0.221316,310,-0.204019,310,-0.24
311,-0.225314,311,-0.207087,311,-0.244
312,-0.229314,312,-0.211689,312,-0.248
313,-0.233312,313,-0.216291,313,-0.252
314,-0.237309,314,-0.219359,314,-0.256
315,-0.241307,315,-0.223961,315,-0.26
316,-0.245305,316,-0.227029,316,-0.264
317,-0.249304,317,-0.231631,317,-0.268
318,-0.253303,318,-0.234699,318,-0.272
319,-0.257304,319,-0.239301,319,-0.276
320,-0.261304,320,-0.243903,320,-0.28
321,-0.265303,321,-0.246971,321,-0.284
322,-0.269303,322,-0.251573,322,-0.288
323,-0.273303,323,-0.256175,323,-0.292
324,-0.277301,324,-0.259243,324,-0.296
325,-0.2813,325,-0.262311,325,-0.3
326,-0.285301,326,-0.266913,326,-0.304
327,-0.289303,327,-0.269981,327,-0.308
328,-0.293306,328,-0.274583,328,-0.312
329,-0.297309,329,-0.279185,329,-0.316
330,-0.30131,330,-0.283786,330,-0.32
331,-0.305309,331,-0.286854,331,-0.324
332,-0.309308,332,-0.291456,332,-0.328
333,-0.313306,333,-0.296058,333,-0.332
334,-0.317303,334,-0.299126,334,-0.336
335,-0.3213,335,-0.303728,335,-0.34
336,-0.325297,336,-0.30833,336,-0.344
337,-0.329293,337,-0.312932,337,-0.348
338,-0.333288,338,-0.317534,338,-0.352
339,-0.337281,339,-0.320602,339,-0.356
340,-0.341275,340,-0.32367,340,-0.36
341,-0.345273,341,-0.328272,341,-0.364
342,-0.349271,342,-0.332874,342,-0.368
343,-0.35327,343,-0.335942,343,-0.372
344,-0.35727,344,-0.340544,344,-0.376
345,-0.36127,345,-0.343612,345,-0.38
346,-0.365272,346,-0.348214,346,-0.384
347,-0.369274,347,-0.351282,347,-0.388
348,-0.373277,348,-0.355884,348,-0.392
349,-0.37728,349,-0.358952,349,-0.396
350,-0.381285,350,-0.363553,350,-0.4
351,-0.385289,351,-0.366621,351,-0.404
352,-0.389293,352,-0.371223,352,-0.408
353,-0.393297,353,-0.374291,353,-0.412
354,-0.397302,354,-0.378893,354,-0.416
355,-0.401306,355,-0.383495,355,-0.42
356,-0.405307,356,-0.388097,356,-0.424
357,-0.409306,357,-0.391165,357,-0.428
358,-0.413305,358,-0.395767,358,-0.432
359,-0.417303,359,-0.398835,359,-0.436
360,-0.421302,360,-0.403437,360,-0.44
361,-0.425302,361,-0.406505,361,-0.444
362,-0.429302,362,-0.411107,362,-0.448
363,-0.433303,363,-0.414175,363,-0.452
364,-0.437305,364,-0.418777,364,-0.456
365,-0.441306,365,-0.421845,365,-0.46
366,-0.445309,366,-0.426447,366,-0.464
367,-0.449311,367,-0.431049,367,-0.468
368,-0.453312,368,-0.434117,368,-0.472
369,-0.457312,369,-0.438719,369,-0.476
370,-0.461312,370,-0.44332,370,-0.48
371,-0.465311,371,-0.447922,371,-0.484
372,-0.469306,372,-0.45099,372,-0.488
373,-0.473303,373,-0.455592,373,-0.492
374,-0.477299,374,-0.460194,374,-0.496
375,-0.481294,375,-0.463262,375,-0.5
376,-0.484762,376,-0.467864,376,-0.496
377,-0.487383,377,-0.472466,377,-0.492
378,-0.489015,378,-0.475534,378,-0.488
379,-0.489635,379,-0.477068,379,-0.484
380,-0.489302,380,-0.478602,380,-0.48
381,-0.488114,381,-0.478602,381,-0.476
382,-0.486198,382,-0.478602,382,-0.472
383,-0.48368,383,-0.478602,383,-0.468
384,-0.480681,384,-0.478602,384,-0.464
385,-0.477312,385,-0.478602,385,-0.46
386,-0.473664,386,-0.477068,386,-0.456
387,-0.469821,387,-0.475534,387,-0.452
388,-0.465846,388,-0.475534,388,-0.448
389,-0.461786,389,-0.472466,389,-0.444
390,-0.457682,390,-0.470932,390,-0.44
391,-0.45356,391,-0.467864,391,-0.436
392,-0.449439,392,-0.464796,392,-0.432
393,-0.445334,393,-0.460194,393,-0.428
394,-0.441253,394,-0.457126,394,-0.424
395,-0.437197,395,-0.452524,395,-0.42
396,-0.433168,396,-0.449456,396,-0.416
397,-0.429162,397,-0.446388,397,-0.412
398,-0.425174,398,-0.44332,398,-0.408
399,-0.421201,399,-0.438719,399,-0.404
400,-0.417241,400,-0.435651,400,-0.4
401,-0.413289,401,-0.431049,401,-0.396
402,-0.409345,402,-0.427981,402,-0.392
403,-0.405405,403,-0.424913,403,-0.388
404,-0.401465,404,-0.420311,404,-0.384
405,-0.397526,405,-0.415709,405,-0.38
406,-0.393589,406,-0.412641,406,-0.376
407,-0.38965,407,-0.408039,407,-0.372
408,-0.38571,408,-0.403437,408,-0.368
409,-0.381769,409,-0.400369,409,-0.364
410,-0.377825,410,-0.395767,410,-0.36
411,-0.373879,411,-0.391165,411,-0.356
412,-0.369931,412,-0.386563,412,-0.352
413,-0.365983,413,-0.383495,413,-0.348
414,-0.362031,414,-0.380427,414,-0.344
415,-0.358073,415,-0.375825,415,-0.34
416,-0.354112,416,-0.371223,416,-0.336
417,-0.350149,417,-0.366621,417,-0.332
418,-0.346186,418,-0.363553,418,-0.328
419,-0.342219,419,-0.358952,419,-0.324
420,-0.338251,420,-0.355884,420,-0.32
421,-0.334279,421,-0.351282,421,-0.316
422,-0.330305,422,-0.34668,422,-0.312
423,-0.326331,423,-0.342078,423,-0.308
424,-0.322357,424,-0.33901,424,-0.304
425,-0.31838,425,-0.334408,425,-0.3
426,-0.314403,426,-0.33134,426,-0.296
427,-0.310422,427,-0.326738,427,-0.292
428,-0.30644,428,-0.32367,428,-0.288
429,-0.302456,429,-0.319068,429,-0.284
430,-0.29847,430,-0.316,430,-0.28
431,-0.294482,431,-0.311398,431,-0.276
432,-0.290493,432,-0.30833,432,-0.272
433,-0.286502,433,-0.303728,433,-0.268
434,-0.282511,434,-0.30066,434,-0.264
435,-0.278518,435,-0.296058,435,-0.26
436,-0.274525,436,-0.29299,436,-0.256
437,-0.270531,437,-0.288388,437,-0.252
438,-0.266537,438,-0.283786,438,-0.248
439,-0.262545,439,-0.280718,439,-0.244
440,-0.258551,440,-0.276117,440,-0.24
441,-0.254559,441,-0.273049,441,-0.236
442,-0.250565,442,-0.268447,442,-0.232
443,-0.246572,443,-0.263845,443,-0.228
444,-0.24258,444,-0.259243,444,-0.224
445,-0.238589,445,-0.256175,445,-0.22
446,-0.234598,446,-0.251573,446,-0.216
447,-0.230607,447,-0.246971,447,-0.212
448,-0.226617,448,-0.243903,448,-0.208
449,-0.222625,449,-0.239301,449,-0.204
450,-0.218633,450,-0.234699,450,-0.2
451,-0.214642,451,-0.231631,451,-0.196
452,-0.210649,452,-0.227029,452,-0.192
453,-0.206655,453,-0.223961,453,-0.188
454,-0.202659,454,-0.219359,454,-0.184
455,-0.198663,455,-0.216291,455,-0.18
456,-0.194665,456,-0.211689,456,-0.176
457,-0.190666,457,-0.207087,457,-0.172
458,-0.186669,458,-0.204019,458,-0.168
459,-0.18267,459,-0.199418,459,-0.164
460,-0.178672,460,-0.19635,460,-0.16
461,-0.174673,461,-0.191748,461,-0.156
462,-0.170674,462,-0.18868,462,-0.152
463,-0.166673,463,-0.184078,463,-0.148
464,-0.162673,464,-0.179476,464,-0.144
465,-0.158674,465,-0.176408,465,-0.14
466,-0.154674,466,-0.171806,466,-0.136
467,-0.150676,467,-0.167204,467,-0.132
468,-0.146679,468,-0.164136,468,-0.128
469,-0.142681,469,-0.159534,469,-0.124
470,-0.138683,470,-0.156466,470,-0.12
471,-0.134684,471,-0.151864,471,-0.116
472,-0.130685,472,-0.147262,472,-0.112
473,-0.126688,473,-0.144194,473,-0.108
474,-0.122689,474,-0.139592,474,-0.104
475,-0.118691,475,-0.13499,475,-0.1
476,-0.114694,476,-0.131922,476,-0.096
477,-0.110696,477,-0.12732,477,-0.092
478,-0.106698,478,-0.124252,478,-0.088
479,-0.102699,479,-0.119651,479,-0.084
480,-0.0986994,480,-0.115049,480,-0.08
481,-0.0947013,481,-0.110447,481,-0.076
482,-0.090705,482,-0.105845,482,-0.072
483,-0.0867106,483,-0.102777,483,-0.068
484,-0.0827151,484,-0.0981748,484,-0.064
485,-0.0787197,485,-0.0951068,485,-0.06
486,-0.0747221,486,-0.0905049,486,-0.056
487,-0.0707241,487,-0.0859029,487,-0.052
488,-0.0667269,488,-0.082835,488,-0.048
489,-0.0627279,489,-0.078233,489,-0.044
490,-0.0587289,490,-0.0751651,490,-0.04
491,-0.054728,491,-0.0705631,491,-0.036
492,-0.050727,492,-0.0674952,492,-0.032
493,-0.0467242,493,-0.0628932,493,-0.028
494,-0.0427217,494,-0.0598253,494,-0.024
495,-0.0387177,495,-0.0552233,495,-0.02
496,-0.0347142,496,-0.0521553,496,-0.016
497,-0.0307096,497,-0.0475534,497,-0.012
498,-0.0267058,498,-0.0429515,498,-0.008
499,-0.022704,499,-0.0398835,499,-0.004
500,-0.0187018,500,-0.0352816,500,0
501,-0.0147007,501,-0.0322136,501,0.004
502,-0.0106986,502,-0.0276117,502,0.008
503,-0.00669724,503,-0.0245437,503,0.012
504,-0.0026947,504,-0.0199418,504,0.016
505,0.00130711,505,-0.0168738,505,0.02
506,0.00531009,506,-0.0122718,506,0.024
507,0.00931227,507,-0.0076699,507,0.028
508,0.0133125,508,-0.00306796,508,0.032
509,0.0173103,509,0,509,0.036
510,0.0213085,510,0.00460194,510,0.04
511,0.025306,511,0.00920388,511,0.044
512,0.0293019,512,0.0138058,512,0.048
513,0.033296,513,0.0168738,513,0.052
514,0.0372914,514,0.0214757,514,0.056
515,0.0412867,515,0.0245437,515,0.06
516,0.0452842,516,0.0291456,516,0.064
517,0.0492821,517,0.0322136,517,0.068
518,0.0532823,518,0.0368155,518,0.072
519,0.0572827,519,0.0398835,519,0.076
520,0.061285,520,0.0444854,520,0.08
521,0.0652871,521,0.0475534,521,0.084
522,0.0692908,522,0.0521553,522,0.088
523,0.0732939,523,0.0552233,523,0.092
524,0.0772983,524,0.0598253,524,0.096
525,0.0813018,525,0.0644272,525,0.1
526,0.0853032,526,0.0690291,526,0.104
527,0.0893021,527,0.0736311,527,0.108
528,0.0932983,528,0.076699,528,0.112
529,0.097295,529,0.081301,529,0.116
530,0.101291,530,0.0859029,530,0.12
531,0.105286,531,0.0889709,531,0.124
532,0.109282,532,0.0935728,532,0.128
533,0.113279,533,0.0981748,533,0.132
534,0.117275,534,0.101243,534,0.136
535,0.121272,535,0.105845,535,0.14
536,0.12527,536,0.110447,536,0.144
537,0.129267,537,0.113515,537,0.148
538,0.133265,538,0.118117,538,0.152
539,0.137264,539,0.121184,539,0.156
