Time - Plot 0,Amplitude - Plot 0,Time - vactual,Amplitude - vactual
0,0,0,0
1,0.0825465,1,0.0850132
2,0.161942,2,0.169554
3,0.232322,3,0.253554
4,0.292242,4,0.321174
5,0.341015,5,0.388299
6,0.379755,6,0.454977
7,0.409523,7,0.505439
8,0.43112,8,0.539775
9,0.445931,9,0.573901
10,0.455773,10,0.607871
11,0.46181,11,0.610072
12,0.464089,12,0.628084
13,0.464967,13,0.630248
14,0.46412,14,0.632445
15,0.462575,15,0.634686
16,0.460712,16,0.636981
17,0.458791,17,0.623507
18,0.456507,18,0.62595
19,0.454963,19,0.612624
20,0.453216,20,0.615212
21,0.452273,21,0.617851
22,0.451596,22,0.60471
23,0.450673,23,0.607471
24,0.450468,24,0.61027
25,0.450423,25,0.597276
26,0.45002,26,0.600171
27,0.450227,27,0.603094
28,0.450495,28,0.590213
29,0.450319,29,0.593213
30,0.450682,30,0.580403
31,0.450576,31,0.583469
32,0.450987,32,0.586549
33,0.451383,33,0.589641
34,0.451748,34,0.592746
35,0.452074,35,0.580033
36,0.451884,36,0.583187
37,0.452184,37,0.586351
38,0.45246,38,0.589521
39,0.452703,39,0.592699
40,0.452914,40,0.595883
41,0.453091,41,0.583244
42,0.452765,42,0.58647
43,0.452946,43,0.589701
44,0.453118,44,0.592935
45,0.453274,45,0.580345
46,0.452938,46,0.583616
47,0.453116,47,0.586889
48,0.453289,48,0.590164
49,0.453447,49,0.593439
50,0.453587,50,0.580888
51,0.453233,51,0.584196
52,0.453392,52,0.587503
53,0.453545,53,0.590811
54,0.453685,54,0.594117
55,0.453808,55,0.581594
56,0.453437,56,0.584929
57,0.453581,57,0.588262
58,0.453721,58,0.591593
59,0.453849,59,0.579093
60,0.453487,60,0.58245
61,0.45364,61,0.585804
62,0.453788,62,0.573326
63,0.370904,63,0.49169
64,0.209139,64,0.309681
65,0.0590611,65,0.160367
66,-0.0705521,66,0.027938
67,-0.178626,67,-0.0876513
68,-0.265615,68,-0.186504
69,-0.333231,69,-0.268755
70,-0.383867,70,-0.334551
71,-0.420191,71,-0.399866
72,-0.445332,72,-0.44898
73,-0.461235,73,-0.482017
74,-0.470078,74,-0.514915
75,-0.474197,75,-0.531908
76,-0.474597,76,-0.533075
77,-0.47249,77,-0.550138
78,-0.469766,78,-0.551434
79,-0.466071,79,-0.552836
80,-0.462361,80,-0.570179
81,-0.459398,81,-0.571779
82,-0.456337,82,-0.573492
83,-0.453769,83,-0.575315
84,-0.451713,84,-0.577242
85,-0.450148,85,-0.579266
86,-0.449024,86,-0.581379
87,-0.448279,87,-0.583575
88,-0.447845,88,-0.585845
89,-0.447661,89,-0.588185
90,-0.447665,90,-0.590588
91,-0.447808,91,-0.593049
92,-0.448047,92,-0.579735
93,-0.447874,93,-0.582328
94,-0.448269,94,-0.569137
95,-0.448219,95,-0.587673
96,-0.449177,96,-0.574558
97,-0.449129,97,-0.593165
98,-0.450052,98,-0.580116
99,-0.449945,99,-0.582955
100,-0.450323,100,-0.585821
101,-0.450674,101,-0.588712
102,-0.450993,102,-0.591627
103,-0.451277,103,-0.594564
104,-0.45153,104,-0.597522
105,-0.451751,105,-0.584671
106,-0.451473,106,-0.587697
107,-0.451704,107,-0.590739
108,-0.451928,108,-0.593797
109,-0.452139,109,-0.596869
110,-0.452332,110,-0.599954
111,-0.452504,111,-0.587223
112,-0.452185,112,-0.590362
113,-0.452379,113,-0.593511
114,-0.452571,114,-0.596669
115,-0.452751,115,-0.599835
116,-0.452915,116,-0.603009
117,-0.45306,117,-0.590362
118,-0.452713,118,-0.59358
119,-0.452881,119,-0.596802
120,-0.453047,120,-0.60003
121,-0.453202,121,-0.587433
122,-0.452868,122,-0.606527
123,-0.453523,123,-0.593936
124,-0.453168,124,-0.597207
125,-0.453318,125,-0.600479
126,-0.453459,126,-0.603753
127,-0.453587,127,-0.607028
128,-0.453698,128,-0.594477
129,-0.453318,129,-0.597784
130,-0.453455,130,-0.601091
131,-0.453591,131,-0.604398
132,-0.453717,132,-0.607704
133,-0.453828,133,-0.595181
134,-0.45345,134,-0.598516
135,-0.453587,135,-0.601849
136,-0.453723,136,-0.60518
137,-0.453849,137,-0.592681
138,-0.453485,138,-0.596038
139,-0.453637,139,-0.599392
140,-0.453785,140,-0.602743
141,-0.453921,141,-0.60609
142,-0.454037,142,-0.593606
143,-0.453661,143,-0.596977
144,-0.453798,144,-0.600344
145,-0.45393,145,-0.603707
146,-0.45405,146,-0.591238
147,-0.453679,147,-0.594623
148,-0.453823,148,-0.598003
149,-0.453963,149,-0.585551
150,-0.453616,150,-0.588951
151,-0.453783,151,-0.592346
152,-0.453945,152,-0.595735
153,-0.454091,153,-0.599119
154,-0.454214,154,-0.602497
155,-0.454315,155,-0.605869
156,-0.454392,156,-0.609237
157,-0.454448,157,-0.6126
158,-0.454485,158,-0.615959
159,-0.454508,159,-0.603486
160,-0.454045,160,-0.606867
161,-0.454105,161,-0.610244
162,-0.454173,162,-0.613617
163,-0.45424,163,-0.616985
164,-0.454299,164,-0.62035
165,-0.454349,165,-0.607882
166,-0.453916,166,-0.611268
167,-0.454005,167,-0.61465
168,-0.454099,168,-0.618027
169,-0.454188,169,-0.605571
170,-0.453794,170,-0.593141
171,-0.453446,171,-0.596564
172,-0.453633,172,-0.599981
173,-0.453823,173,-0.60339
174,-0.454,174,-0.606793
175,-0.454157,175,-0.594361
176,-0.453814,176,-0.613609
177,-0.45445,177,-0.601163
178,-0.454069,178,-0.60457
179,-0.454187,179,-0.60797
180,-0.454293,180,-0.595535
181,-0.453909,181,-0.598953
182,-0.45404,182,-0.618193
183,-0.45464,183,-0.605739
184,-0.454221,184,-0.609138
185,-0.454303,185,-0.612531
186,-0.454376,186,-0.615918
187,-0.454437,187,-0.603471
188,-0.371465,188,-0.521865
189,-0.209618,189,-0.355711
190,-0.0599389,190,-0.190565
191,0.0702723,191,-0.0581623
192,0.178415,192,0.0732299
193,0.265926,193,0.1562
194,0.333041,194,0.254257
195,0.384159,195,0.320001
196,0.420431,196,0.385268
197,0.44551,197,0.450164
198,0.46182,198,0.483127
199,0.470539,199,0.515955
200,0.474528,200,0.54871
201,0.475276,201,0.565613
202,0.47347,202,0.582559
203,0.470517,203,0.583744
204,0.466592,204,0.585042
205,0.462671,205,0.602287
206,0.459524,206,0.603796
207,0.45631,207,0.605425
208,0.453621,208,0.60717
209,0.451475,209,0.609024
210,0.449845,210,0.595151
211,0.448205,211,0.597232
212,0.447496,212,0.599397
213,0.447128,213,0.601641
214,0.447022,214,0.603956
215,0.447111,215,0.606336
216,0.447335,216,0.592947
217,0.447176,217,0.59547
218,0.447603,218,0.598042
219,0.448069,219,0.584831
220,0.448069,220,0.587519
221,0.448591,221,0.606072
222,0.449572,222,0.592973
223,0.449517,223,0.595765
224,0.449942,224,0.598586
225,0.450332,225,0.601435
226,0.450684,226,0.60431
227,0.450997,227,0.607209
228,0.451273,228,0.594303
229,0.451042,229,0.597277
230,0.451315,230,0.584442
231,0.451102,231,0.587484
232,0.451404,232,0.590541
233,0.451697,233,0.593613
234,0.451971,234,0.596698
235,0.452218,235,0.599795
236,0.452436,236,0.587075
237,0.452152,237,0.590224
238,0.452375,238,0.593382
239,0.452588,239,0.596548
240,0.452782,240,0.583894
241,0.452483,241,0.587105
242,0.452693,242,0.574493
243,0.452423,243,0.577745
244,0.45267,244,0.581
245,0.452909,245,0.584257
246,0.453129,246,0.571688
247,0.452849,247,0.574979
248,0.453074,248,0.578271
249,0.453285,249,0.581563
250,0.453474,250,0.569027
251,0.453162,251,0.572348
252,0.453357,252,0.575669
253,0.45354,253,0.578988
254,0.453702,254,0.582305
255,0.453841,255,0.585621
256,0.453955,256,0.588935
257,0.454045,257,0.592247
258,0.454115,258,0.595558
259,0.454166,259,0.58304
260,0.453729,260,0.586379
261,0.453813,261,0.573889
262,0.453429,262,0.593082
263,0.454048,263,0.580586
264,0.453666,264,0.583946
265,0.453795,265,0.587303
266,0.45392,266,0.590656
267,0.454032,267,0.578177
268,0.453655,268,0.597381
269,0.454266,269,0.584895
270,0.453868,270,0.588264
271,0.453977,271,0.575801
272,0.453607,272,0.579191
273,0.453758,273,0.582577
274,0.453907,274,0.585958
275,0.454045,275,0.573506
276,0.453692,276,0.576907
277,0.45385,277,0.580302
278,0.454002,278,0.567863
279,0.453665,279,0.587105
280,0.454312,280,0.574654
281,0.453945,281,0.593883
282,0.454552,282,0.58142
283,0.45414,283,0.584811
284,0.454229,284,0.588196
285,0.454309,285,0.575747
286,0.453903,286,0.579152
287,0.454016,287,0.58255
288,0.45413,288,0.585943
289,0.454234,289,0.573503
290,0.453851,290,0.576914
291,0.453985,291,0.564492
292,0.453642,292,0.567921
293,0.45382,293,0.571343
294,0.453995,294,0.574758
295,0.454153,295,0.578165
296,0.454289,296,0.581566
297,0.454399,297,0.584959
298,0.454483,298,0.572519
299,0.454071,299,0.57593
300,0.454172,300,0.579336
301,0.454269,301,0.582735
302,0.454356,302,0.586127
303,0.454429,303,0.573686
304,0.454013,304,0.592926
305,0.454588,305,0.580473
306,0.454157,306,0.583873
307,0.454236,307,0.587267
308,0.454312,308,0.574827
309,0.453907,309,0.57824
310,0.454023,310,0.597475
311,0.454614,311,0.585018
312,0.454189,312,0.572585
313,0.371249,313,0.490992
314,0.209441,314,0.324851
315,0.0598017,315,0.175545
316,-0.0698985,316,0.0272952
317,-0.178541,317,-0.0882576
318,-0.265564,318,-0.171247
319,-0.33272,319,-0.253494
320,-0.383416,320,-0.335115
321,-0.420279,321,-0.400398
322,-0.445427,322,-0.44948
323,-0.461317,323,-0.482487
324,-0.470136,324,-0.515356
325,-0.474228,325,-0.516494
326,-0.474126,326,-0.533494
327,-0.472526,327,-0.550532
328,-0.469795,328,-0.535976
329,-0.465611,329,-0.553213
330,-0.462418,330,-0.554706
331,-0.458978,331,-0.556315
332,-0.455965,332,-0.573865
333,-0.453927,333,-0.559839
334,-0.451398,334,-0.577603
335,-0.450348,335,-0.563777
336,-0.448738,336,-0.5659
337,-0.448026,337,-0.552276
338,-0.44716,338,-0.570414
339,-0.447551,339,-0.572762
340,-0.44761,340,-0.575171
341,-0.447793,341,-0.577638
342,-0.44806,342,-0.580157
343,-0.448378,343,-0.582724
344,-0.448723,344,-0.569508
345,-0.448603,345,-0.58802
346,-0.449486,346,-0.574883
347,-0.449362,347,-0.577639
348,-0.449742,348,-0.580428
349,-0.450107,349,-0.583248
350,-0.450449,350,-0.586095
351,-0.450763,351,-0.588969
352,-0.451046,352,-0.576039
353,-0.450828,353,-0.594819
354,-0.451588,354,-0.581934
355,-0.45133,355,-0.584926
356,-0.451573,356,-0.587937
357,-0.451803,357,-0.590966
358,-0.452016,358,-0.578181
359,-0.451736,359,-0.58127
360,-0.451969,360,-0.584372
361,-0.452197,361,-0.587485
362,-0.45241,362,-0.59061
363,-0.452603,363,-0.577916
364,-0.452301,364,-0.581089
365,-0.45251,365,-0.600099
366,-0.453186,366,-0.587429
367,-0.45284,367,-0.606453
368,-0.453467,368,-0.593796
369,-0.453076,369,-0.597005
370,-0.453189,370,-0.58439
371,-0.452825,371,-0.603467
372,-0.453458,372,-0.590862
373,-0.453089,373,-0.594119
374,-0.453231,374,-0.597378
375,-0.453369,375,-0.60064
376,-0.453497,376,-0.603904
377,-0.45361,377,-0.607169
378,-0.453707,378,-0.594609
379,-0.453315,379,-0.597908
380,-0.453442,380,-0.601207
381,-0.45357,381,-0.604507
382,-0.45369,382,-0.607806
383,-0.453797,383,-0.595277
384,-0.453416,384,-0.598606
385,-0.453553,385,-0.601934
386,-0.453689,386,-0.589432
387,-0.453341,387,-0.592786
388,-0.453512,388,-0.596138
389,-0.45368,389,-0.599486
390,-0.453833,390,-0.602832
391,-0.453966,391,-0.606174
392,-0.454077,392,-0.593684
393,-0.453693,393,-0.612879
394,-0.454294,394,-0.600383
395,-0.453885,395,-0.603742
396,-0.453983,396,-0.607098
397,-0.454075,397,-0.594623
398,-0.453684,398,-0.598002
399,-0.453812,399,-0.585549
400,-0.453469,400,-0.58895
401,-0.453648,401,-0.592346
402,-0.453826,402,-0.595735
403,-0.45399,403,-0.599119
404,-0.454132,404,-0.602498
405,-0.454249,405,-0.605871
406,-0.454342,406,-0.609239
407,-0.45441,407,-0.612602
408,-0.454459,408,-0.615961
409,-0.454489,409,-0.603488
410,-0.454033,410,-0.591041
411,-0.453626,411,-0.610277
412,-0.45423,412,-0.613648
413,-0.454313,413,-0.617016
414,-0.454378,414,-0.60455
415,-0.453952,415,-0.607939
416,-0.454045,416,-0.611322
417,-0.454139,417,-0.614701
418,-0.454226,418,-0.602247
419,-0.453828,419,-0.605646
420,-0.45395,420,-0.593212
421,-0.453598,421,-0.59663
422,-0.45377,422,-0.600042
423,-0.453941,423,-0.603448
424,-0.454098,424,-0.606846
425,-0.454233,425,-0.610239
426,-0.454344,426,-0.597797
427,-0.453957,427,-0.601207
428,-0.45408,428,-0.604611
429,-0.454198,429,-0.608008
430,-0.454302,430,-0.595572
431,-0.453915,431,-0.598987
432,-0.454043,432,-0.602396
433,-0.454168,433,-0.605799
434,-0.454279,434,-0.609195
435,-0.454373,435,-0.612585
436,-0.454449,436,-0.600141
437,-0.454032,437,-0.603549
438,-0.371585,438,-0.506111
439,-0.209269,439,-0.339983
440,-0.059643,440,-0.19069
441,0.0700343,441,-0.0424522
442,0.178649,442,0.0730888
443,0.265644,443,0.171895
444,0.333247,444,0.254102
445,0.38386,445,0.335684
446,0.420628,446,0.40093
447,0.445682,447,0.449977
448,0.461485,448,0.482952
449,0.470229,449,0.515791
450,0.474257,450,0.548557
451,0.475051,451,0.565471
452,0.473292,452,0.566599
453,0.46991,453,0.583651
454,0.466559,454,0.584956
455,0.462685,455,0.602208
456,0.459569,456,0.603723
457,0.456374,457,0.605357
458,0.453693,458,0.607106
459,0.451549,459,0.593135
460,0.449444,460,0.595125
461,0.448332,461,0.597207
462,0.447631,462,0.599375
463,0.447259,463,0.60162
464,0.447143,464,0.588108
465,0.446744,465,0.590519
466,0.447013,466,0.592987
467,0.447386,467,0.579681
468,0.447343,468,0.582281
469,0.447856,469,0.600752
470,0.448855,470,0.603405
471,0.449307,471,0.590268
472,0.449241,472,0.593023
473,0.449664,473,0.595811
474,0.450062,474,0.598629
475,0.450426,475,0.601475
476,0.450754,476,0.604347
477,0.451047,477,0.591415
478,0.450834,478,0.594365
479,0.451123,479,0.597335
480,0.451399,480,0.600325
481,0.451655,481,0.587505
482,0.451414,482,0.59056
483,0.451682,483,0.577802
484,0.451467,484,0.580915
485,0.451766,485,0.58404
486,0.452056,486,0.587175
487,0.452324,487,0.59032
488,0.452564,488,0.577644
489,0.452299,489,0.596663
490,0.453011,490,0.584003
491,0.452702,491,0.587207
492,0.452891,492,0.590417
493,0.453065,493,0.593632
494,0.453219,494,0.596851
495,0.453353,495,0.568418
496,0.452521,496,0.587534
497,0.453209,497,0.590794
498,0.453375,498,0.578228
499,0.453047,499,0.565693
500,0.452756,500,0.569017
501,0.452992,501,0.572341
502,0.453225,502,0.575663
503,0.453441,503,0.578983
504,0.453631,504,0.582301
505,0.453792,505,0.585618
506,0.453923,506,0.573104
507,0.453554,507,0.576448
508,0.453694,508,0.579788
509,0.453826,509,0.583126
510,0.453945,510,0.586462
511,0.454046,511,0.589795
512,0.454128,512,0.593125
513,0.454193,513,0.580625
514,0.453769,514,0.583982
515,0.453864,515,0.587335
516,0.453961,516,0.590685
517,0.454053,517,0.594032
518,0.454134,518,0.597376
519,0.454202,519,0.584889
520,0.453783,520,0.588258
521,0.453884,521,0.591623
522,0.453988,522,0.594984
523,0.454086,523,0.582513
524,0.453698,524,0.585897
525,0.45383,525,0.573448
526,0.453488,526,0.592681
527,0.454142,527,0.580222
528,0.453787,528,0.583616
529,0.453937,529,0.587004
530,0.454075,530,0.590387
531,0.454195,531,0.577936
532,0.453821,532,0.581339
533,0.453959,533,0.584735
534,0.454091,534,0.588126
535,0.454209,535,0.591511
536,0.454308,536,0.579062
537,0.453914,537,0.566638
538,0.453561,538,0.570066
539,0.453738,539,0.573488
540,0.453917,540,0.576902
541,0.454083,541,0.564481
542,0.453755,542,0.567911
543,0.453935,543,0.571334
544,0.454104,544,0.574749
545,0.454251,545,0.578157
546,0.454373,546,0.581557
547,0.454469,547,0.584951
548,0.45454,548,0.572511
549,0.454116,549,0.575922
550,0.454207,550,0.579328
551,0.454295,551,0.582727
552,0.454375,552,0.58612
553,0.454442,553,0.589507
554,0.454495,554,0.592889
555,0.454533,555,0.580437
556,0.454086,556,0.599667
557,0.454633,557,0.587205
558,0.454178,558,0.590596
559,0.454239,559,0.593982
560,0.454301,560,0.597364
561,0.454358,561,0.584912
562,0.453933,562,0.588314
563,0.371486,563,0.506697
564,0.209647,564,0.340533
565,0.0599674,565,0.15955
566,-0.0707219,566,0.0429954
567,-0.178339,567,-0.0884065
568,-0.265844,568,-0.171386
569,-0.332965,569,-0.253624
570,-0.383621,570,-0.335236
571,-0.420441,571,-0.40051
572,-0.445549,572,-0.449585
573,-0.461403,573,-0.482584
574,-0.470193,574,-0.499618
575,-0.473786,575,-0.532436
576,-0.474672,576,-0.533571
577,-0.472538,577,-0.534776
578,-0.469312,578,-0.551901
579,-0.46612,579,-0.553275
580,-0.462398,580,-0.554764
581,-0.458944,581,-0.556368
582,-0.455922,582,-0.573915
583,-0.45388,583,-0.559886
584,-0.451351,584,-0.561819
585,-0.449831,585,-0.579677
586,-0.44923,586,-0.565938
587,-0.448003,587,-0.56814
588,-0.447604,588,-0.570418
589,-0.447458,589,-0.572764
590,-0.447503,590,-0.575173
591,-0.447684,591,-0.577639
592,-0.447957,592,-0.580159
593,-0.448285,593,-0.566898
594,-0.44817,594,-0.56954
595,-0.448597,595,-0.572223
596,-0.449033,596,-0.574943
597,-0.449458,597,-0.577697
598,-0.449859,598,-0.580484
599,-0.450228,599,-0.5833
600,-0.450564,600,-0.586144
601,-0.450865,601,-0.573187
602,-0.45066,602,-0.576112
603,-0.450958,603,-0.594888
604,-0.451716,604,-0.581998
605,-0.451447,605,-0.584987
606,-0.451674,606,-0.587994
607,-0.451887,607,-0.57519
608,-0.451609,608,-0.57826
609,-0.451845,609,-0.581344
610,-0.452078,610,-0.584442
611,-0.452296,611,-0.587551
612,-0.452495,612,-0.590671
613,-0.452673,613,-0.593801
614,-0.452828,614,-0.59694
615,-0.452962,615,-0.584261
616,-0.452605,616,-0.587448
617,-0.452764,617,-0.590643
618,-0.452923,618,-0.593844
619,-0.453073,619,-0.59705
620,-0.453209,620,-0.600262
621,-0.45333,621,-0.603479
622,-0.453435,622,-0.6067
623,-0.453524,623,-0.594097
624,-0.453126,624,-0.597357
625,-0.453249,625,-0.60062
626,-0.453375,626,-0.603885
627,-0.453495,627,-0.591324
628,-0.453132,628,-0.594622
629,-0.453289,629,-0.597922
630,-0.453446,630,-0.601221
631,-0.453592,631,-0.588693
632,-0.453249,632,-0.592022
633,-0.453421,633,-0.595349
634,-0.453587,634,-0.598675
635,-0.453738,635,-0.601999
636,-0.45387,636,-0.589493
637,-0.453506,637,-0.592844
638,-0.453655,638,-0.596191
639,-0.453798,639,-0.583708
640,-0.453454,640,-0.587079
641,-0.453625,641,-0.606275
642,-0.454263,642,-0.59378
643,-0.45388,643,-0.597141
644,-0.453994,644,-0.600497
645,-0.454096,645,-0.60385
646,-0.454183,646,-0.591371
647,-0.453779,647,-0.594748
648,-0.453893,648,-0.582291
649,-0.453534,649,-0.585689
650,-0.453698,650,-0.589082
651,-0.453863,651,-0.592469
652,-0.454015,652,-0.595851
653,-0.454147,653,-0.599227
654,-0.454256,654,-0.602598
655,-0.454343,655,-0.605964
656,-0.454407,656,-0.593497
657,-0.453979,657,-0.612713
658,-0.454541,658,-0.600238
659,-0.454098,659,-0.603616
660,-0.454166,660,-0.606991
661,-0.454234,661,-0.594533
662,-0.453823,662,-0.597928
663,-0.453935,663,-0.601319
664,-0.454051,664,-0.604704
665,-0.454159,665,-0.592256
666,-0.453781,666,-0.595662
667,-0.45392,667,-0.599061
668,-0.454056,668,-0.602454
669,-0.45418,669,-0.590014
670,-0.453812,670,-0.593425
671,-0.453958,671,-0.596831
672,-0.454098,672,-0.60023
673,-0.454223,673,-0.603623
674,-0.454328,674,-0.607009
675,-0.454412,675,-0.594562
676,-0.454002,676,-0.597968
677,-0.454107,677,-0.601368
678,-0.454209,678,-0.588933
679,-0.453829,679,-0.592351
680,-0.453967,680,-0.595763
681,-0.454104,681,-0.599167
682,-0.454228,682,-0.602566
683,-0.454334,683,-0.605957
684,-0.45442,684,-0.609343
685,-0.454486,685,-0.596895
686,-0.454059,686,-0.6003
687,-0.45415,687,-0.603699
688,-0.371694,688,-0.522079
689,-0.209835,689,-0.355913
690,-0.0601296,690,-0.190754
691,0.0701146,691,-0.0425107
692,0.178765,692,0.0730349
693,0.265776,693,0.171845
694,0.333381,694,0.254055
695,0.383988,695,0.319811
696,0.420272,696,0.38509
697,0.445372,697,0.434169
698,0.461234,698,0.483001
699,0.470515,699,0.531666
700,0.475017,700,0.548571
701,0.475258,701,0.565483
702,0.473454,702,0.582437
703,0.470506,703,0.599457
704,0.46706,704,0.600732
705,0.463085,705,0.602126
706,0.459397,706,0.603644
707,0.456171,707,0.605282
708,0.453486,708,0.607035
709,0.451354,709,0.593069
710,0.449271,710,0.610891
711,0.44866,711,0.59712
712,0.447452,712,0.599293
713,0.447093,713,0.601543
714,0.446997,714,0.603864
715,0.447096,715,0.590422
716,0.446856,716,0.592896
717,0.447238,717,0.595424
718,0.447686,718,0.597999
719,0.44816,719,0.584791
720,0.448161,720,0.587481
721,0.448677,721,0.590208
722,0.449177,722,0.59297
723,0.449646,723,0.595762
724,0.450074,724,0.598584
725,0.450458,725,0.601433
726,0.450798,726,0.604307
727,0.451096,727,0.591378
728,0.450883,728,0.59433
729,0.45117,729,0.597303
730,0.451442,730,0.600294
731,0.451693,731,0.603304
732,0.451921,732,0.590502
733,0.45165,733,0.593575
734,0.45189,734,0.596661
735,0.452121,735,0.599759
736,0.452337,736,0.587041
737,0.452059,737,0.590193
738,0.452292,738,0.577525
739,0.452044,739,0.580723
740,0.452313,740,0.583929
741,0.452573,741,0.571311
742,0.45234,742,0.574556
743,0.452613,743,0.577805
744,0.452871,744,0.581057
745,0.453102,745,0.584311
746,0.453303,746,0.571738
747,0.452999,747,0.575026
748,0.453198,748,0.562486
749,0.452911,749,0.565804
750,0.453136,750,0.569122
