Time - Theta_sim,Amplitude - Theta_sim,Time - Theta_Motor,Amplitude - Theta_Motor,Time - Input V,Amplitude - Input V
0,0,0,0,0,0
1,0.000322141,1,0,1,0.0502443
2,0.00117049,2,0,2,0.100362
3,0.00267322,3,0,3,0.150226
4,0.00490939,4,0,4,0.19971
5,0.00792607,5,0,5,0.24869
6,0.0117492,6,0,6,0.297042
7,0.0163903,7,0,7,0.344643
8,0.0218514,8,0.00306796,8,0.391374
9,0.0281272,9,0.00613592,9,0.437116
10,0.0352074,10,0.00920388,10,0.481754
11,0.0430775,11,0.0138058,11,0.525175
12,0.05172,12,0.0184078,12,0.567269
13,0.0611143,13,0.0260777,13,0.60793
14,0.0712378,14,0.0322136,14,0.647056
15,0.0820652,15,0.0398835,15,0.684547
16,0.0935697,16,0.0475534,16,0.720309
17,0.105722,17,0.0567573,17,0.754251
18,0.118493,18,0.0659612,18,0.786288
19,0.131849,19,0.076699,19,0.816339
20,0.145757,20,0.0874369,20,0.844328
21,0.160181,21,0.0997088,21,0.870184
22,0.175086,22,0.113515,22,0.893841
23,0.190434,23,0.125786,23,0.915241
24,0.206185,24,0.138058,24,0.934329
25,0.222301,25,0.151864,25,0.951057
26,0.23874,26,0.167204,26,0.965382
27,0.255461,27,0.18101,27,0.977268
28,0.272422,28,0.19635,28,0.986686
29,0.289579,29,0.211689,29,0.993611
30,0.30689,30,0.227029,30,0.998027
31,0.324311,31,0.242369,31,0.999921
32,0.341798,32,0.257709,32,0.999289
33,0.359306,33,0.274583,33,0.996134
34,0.376791,34,0.288388,34,0.990461
35,0.39421,35,0.306796,35,0.982287
36,0.411518,36,0.32367,36,0.971632
37,0.428672,37,0.337476,37,0.958522
38,0.445627,38,0.35435,38,0.942991
39,0.462342,39,0.369689,39,0.925077
40,0.478774,40,0.383495,40,0.904827
41,0.494881,41,0.400369,41,0.882291
42,0.510624,42,0.414175,42,0.857527
43,0.525961,43,0.429515,43,0.830596
44,0.540855,44,0.44332,44,0.801567
45,0.555268,45,0.455592,45,0.770513
46,0.569163,46,0.469398,46,0.737513
47,0.582505,47,0.483204,47,0.70265
48,0.595261,48,0.495476,48,0.666012
49,0.607398,49,0.506214,49,0.627691
50,0.618886,50,0.518486,50,0.587785
51,0.629696,51,0.529223,51,0.546394
52,0.639799,52,0.538427,52,0.503623
53,0.649172,53,0.547631,53,0.45958
54,0.65779,54,0.556835,54,0.414376
55,0.665631,55,0.564505,55,0.368125
56,0.672675,56,0.570641,56,0.320944
57,0.678906,57,0.578311,57,0.272952
58,0.684306,58,0.582913,58,0.224271
59,0.688863,59,0.587515,59,0.175023
60,0.692565,60,0.590583,60,0.125333
61,0.695402,61,0.593651,61,0.0753268
62,0.697368,62,0.596719,62,0.0251301
63,0.698457,63,0.596719,63,-0.0251301
64,0.698667,64,0.596719,64,-0.0753268
65,0.697996,65,0.596719,65,-0.125333
66,0.696448,66,0.596719,66,-0.175023
67,0.694025,67,0.596719,67,-0.224271
68,0.690734,68,0.596719,68,-0.272952
69,0.686584,69,0.596719,69,-0.320944
70,0.681583,70,0.595185,70,-0.368125
71,0.675747,71,0.592117,71,-0.414376
72,0.669088,72,0.587515,72,-0.45958
73,0.661624,73,0.582913,73,-0.503623
74,0.653374,74,0.578311,74,-0.546394
75,0.644358,75,0.572175,75,-0.587785
76,0.634599,76,0.564505,76,-0.627691
77,0.624123,77,0.556835,77,-0.666012
78,0.612955,78,0.547631,78,-0.70265
79,0.601123,79,0.538427,79,-0.737513
80,0.588658,80,0.527689,80,-0.770513
81,0.575591,81,0.518486,81,-0.801567
82,0.561955,82,0.506214,82,-0.830596
83,0.547785,83,0.495476,83,-0.857527
84,0.533116,84,0.48167,84,-0.882291
85,0.517985,85,0.469398,85,-0.904827
86,0.50243,86,0.457126,86,-0.925077
87,0.486492,87,0.441786,87,-0.942991
88,0.470209,88,0.427981,88,-0.958522
89,0.453624,89,0.414175,89,-0.971632
90,0.436778,90,0.398835,90,-0.982287
91,0.419713,91,0.385029,91,-0.990461
92,0.402473,92,0.368155,92,-0.996134
93,0.385102,93,0.352816,93,-0.999289
94,0.367643,94,0.335942,94,-0.999921
95,0.35014,95,0.320602,95,-0.998027
96,0.332637,96,0.303728,96,-0.993611
97,0.31518,97,0.288388,97,-0.986686
98,0.297811,98,0.273049,98,-0.977268
99,0.280575,99,0.254641,99,-0.965382
100,0.263515,100,0.239301,100,-0.951057
101,0.246674,101,0.223961,101,-0.934329
102,0.230096,102,0.208621,102,-0.915241
103,0.213821,103,0.193282,103,-0.893841
104,0.197891,104,0.177942,104,-0.870184
105,0.182346,105,0.162602,105,-0.844328
106,0.167225,106,0.147262,106,-0.816339
107,0.152568,107,0.13499,107,-0.786288
108,0.138409,108,0.119651,108,-0.754251
109,0.124786,109,0.107379,109,-0.720309
110,0.111733,110,0.0951068,110,-0.684547
111,0.0992827,111,0.082835,111,-0.647056
112,0.0874665,112,0.0705631,112,-0.60793
113,0.0763143,113,0.0598253,113,-0.567269
114,0.0658544,114,0.0490874,114,-0.525175
115,0.0561131,115,0.0398835,115,-0.481754
116,0.0471151,116,0.0306796,116,-0.437116
117,0.0388831,117,0.0230097,117,-0.391374
118,0.0314378,118,0.0153398,118,-0.344643
119,0.0247981,119,0.00920388,119,-0.297042
120,0.0189808,120,0.00306796,120,-0.24869
121,0.0140006,121,-0.00153398,121,-0.19971
122,0.00986999,122,-0.00613592,122,-0.150226
123,0.00659945,123,-0.00920388,123,-0.100362
124,0.00419725,124,-0.0122718,124,-0.0502443
125,0.00266945,125,-0.0138058,125,-2.45E-16
126,0.00201991,126,-0.0138058,126,0.0502443
127,0.00225028,127,-0.0138058,127,0.100362
128,0.00335996,128,-0.0138058,128,0.150226
129,0.00534616,129,-0.0138058,129,0.19971
130,0.00820385,130,-0.0138058,130,0.24869
131,0.0119258,131,-0.0138058,131,0.297042
132,0.0165027,132,-0.0138058,132,0.344643
133,0.0219229,133,-0.0107379,133,0.391374
134,0.0281727,134,-0.0076699,134,0.437116
135,0.0352363,135,-0.00460194,135,0.481754
136,0.0430959,136,0,136,0.525175
137,0.0517317,137,0.00613592,137,0.567269
138,0.0611218,138,0.0122718,138,0.60793
139,0.0712425,139,0.0199418,139,0.647056
140,0.0820682,140,0.0260777,140,0.684547
141,0.0935717,141,0.0352816,141,0.720309
142,0.105724,142,0.0444854,142,0.754251
143,0.118494,143,0.0552233,143,0.786288
144,0.131849,144,0.0644272,144,0.816339
145,0.145757,145,0.076699,145,0.844328
146,0.160181,146,0.0889709,146,0.870184
147,0.175086,147,0.0997088,147,0.893841
148,0.190434,148,0.113515,148,0.915241
149,0.206185,149,0.12732,149,0.934329
150,0.222301,150,0.141126,150,0.951057
151,0.23874,151,0.156466,151,0.965382
152,0.255461,152,0.168738,152,0.977268
153,0.272422,153,0.185612,153,0.986686
154,0.289579,154,0.200951,154,0.993611
155,0.30689,155,0.216291,155,0.998027
156,0.324311,156,0.230097,156,0.999921
157,0.341798,157,0.248505,157,0.999289
158,0.359306,158,0.262311,158,0.996134
159,0.376791,159,0.279185,159,0.990461
160,0.39421,160,0.294524,160,0.982287
161,0.411518,161,0.311398,161,0.971632
162,0.428672,162,0.326738,162,0.958522
163,0.445627,163,0.342078,163,0.942991
164,0.462342,164,0.358952,164,0.925077
165,0.478774,165,0.372757,165,0.904827
166,0.494881,166,0.388097,166,0.882291
167,0.510624,167,0.403437,167,0.857527
168,0.525961,168,0.417243,168,0.830596
169,0.540855,169,0.431049,169,0.801567
170,0.555268,170,0.446388,170,0.770513
171,0.569163,171,0.45866,171,0.737513
172,0.582505,172,0.472466,172,0.70265
173,0.595261,173,0.483204,173,0.666012
174,0.607398,174,0.49701,174,0.627691
175,0.618886,175,0.507748,175,0.587785
176,0.629696,176,0.518486,176,0.546394
177,0.639799,177,0.527689,177,0.503623
178,0.649172,178,0.536893,178,0.45958
179,0.65779,179,0.544563,179,0.414376
180,0.665631,180,0.552233,180,0.368125
181,0.672675,181,0.559903,181,0.320944
182,0.678906,182,0.566039,182,0.272952
183,0.684306,183,0.572175,183,0.224271
184,0.688863,184,0.576777,184,0.175023
185,0.692565,185,0.579845,185,0.125333
186,0.695402,186,0.582913,186,0.0753268
187,0.697368,187,0.584447,187,0.0251301
188,0.698457,188,0.585981,188,-0.0251301
189,0.698667,189,0.585981,189,-0.0753268
190,0.697996,190,0.585981,190,-0.125333
191,0.696448,191,0.585981,191,-0.175023
192,0.694025,192,0.585981,192,-0.224271
193,0.690734,193,0.585981,193,-0.272952
194,0.686584,194,0.585981,194,-0.320944
195,0.681583,195,0.584447,195,-0.368125
196,0.675747,196,0.581379,196,-0.414376
197,0.669088,197,0.576777,197,-0.45958
198,0.661624,198,0.572175,198,-0.503623
199,0.653374,199,0.566039,199,-0.546394
200,0.644358,200,0.559903,200,-0.587785
201,0.634599,201,0.553767,201,-0.627691
202,0.624123,202,0.544563,202,-0.666012
203,0.612955,203,0.536893,203,-0.70265
204,0.601123,204,0.527689,204,-0.737513
205,0.588658,205,0.516952,205,-0.770513
206,0.575591,206,0.506214,206,-0.801567
207,0.561955,207,0.495476,207,-0.830596
208,0.547785,208,0.484738,208,-0.857527
209,0.533116,209,0.470932,209,-0.882291
210,0.517985,210,0.45866,210,-0.904827
211,0.50243,211,0.446388,211,-0.925077
212,0.486492,212,0.431049,212,-0.942991
213,0.470209,213,0.417243,213,-0.958522
214,0.453624,214,0.401903,214,-0.971632
215,0.436778,215,0.388097,215,-0.982287
216,0.419713,216,0.371223,216,-0.990461
217,0.402473,217,0.355884,217,-0.996134
218,0.385102,218,0.340544,218,-0.999289
219,0.367643,219,0.325204,219,-0.999921
220,0.35014,220,0.30833,220,-0.998027
221,0.332637,221,0.29299,221,-0.993611
222,0.31518,222,0.276117,222,-0.986686
223,0.297811,223,0.260777,223,-0.977268
224,0.280575,224,0.243903,224,-0.965382
225,0.263515,225,0.228563,225,-0.951057
226,0.246674,226,0.213223,226,-0.934329
227,0.230096,227,0.19635,227,-0.915241
228,0.213821,228,0.182544,228,-0.893841
229,0.197891,229,0.16567,229,-0.870184
230,0.182346,230,0.15033,230,-0.844328
231,0.167225,231,0.138058,231,-0.816339
232,0.152568,232,0.122718,232,-0.786288
233,0.138409,233,0.108913,233,-0.754251
234,0.124786,234,0.0951068,234,-0.720309
235,0.111733,235,0.082835,235,-0.684547
236,0.0992827,236,0.0705631,236,-0.647056
237,0.0874665,237,0.0582913,237,-0.60793
238,0.0763143,238,0.0475534,238,-0.567269
239,0.0658544,239,0.0383495,239,-0.525175
240,0.0561131,240,0.0291456,240,-0.481754
241,0.0471151,241,0.0199418,241,-0.437116
242,0.0388831,242,0.0122718,242,-0.391374
243,0.0314378,243,0.00460194,243,-0.344643
244,0.0247981,244,-0.00153398,244,-0.297042
245,0.0189808,245,-0.0076699,245,-0.24869
246,0.0140006,246,-0.0122718,246,-0.19971
247,0.00986999,247,-0.0168738,247,-0.150226
248,0.00659945,248,-0.0199418,248,-0.100362
249,0.00419725,249,-0.0230097,249,-0.0502443
250,0.00266945,250,-0.0245437,250,-4.90E-16
251,0.00201991,251,-0.0260777,251,0.0502443
252,0.00225028,252,-0.0260777,252,0.100362
253,0.00335996,253,-0.0260777,253,0.150226
254,0.00534616,254,-0.0260777,254,0.19971
255,0.00820385,255,-0.0260777,255,0.24869
256,0.0119258,256,-0.0260777,256,0.297042
257,0.0165027,257,-0.0260777,257,0.344643
258,0.0219229,258,-0.0230097,258,0.391374
259,0.0281727,259,-0.0199418,259,0.437116
260,0.0352363,260,-0.0153398,260,0.481754
261,0.0430959,261,-0.0107379,261,0.525175
262,0.0517317,262,-0.00613592,262,0.567269
263,0.0611218,263,0.00153398,263,0.60793
264,0.0712425,264,0.0076699,264,0.647056
265,0.0820682,265,0.0153398,265,0.684547
266,0.0935717,266,0.0245437,266,0.720309
267,0.105724,267,0.0337476,267,0.754251
268,0.118494,268,0.0429515,268,0.786288
269,0.131849,269,0.0536893,269,0.816339
270,0.145757,270,0.0644272,270,0.844328
271,0.160181,271,0.076699,271,0.870184
272,0.175086,272,0.0874369,272,0.893841
273,0.190434,273,0.101243,273,0.915241
274,0.206185,274,0.115049,274,0.934329
275,0.222301,275,0.128854,275,0.951057
276,0.23874,276,0.144194,276,0.965382
277,0.255461,277,0.156466,277,0.977268
278,0.272422,278,0.171806,278,0.986686
279,0.289579,279,0.18868,279,0.993611
280,0.30689,280,0.202485,280,0.998027
281,0.324311,281,0.217825,281,0.999921
282,0.341798,282,0.234699,282,0.999289
283,0.359306,283,0.250039,283,0.996134
284,0.376791,284,0.265379,284,0.990461
285,0.39421,285,0.280718,285,0.982287
286,0.411518,286,0.297592,286,0.971632
287,0.428672,287,0.312932,287,0.958522
288,0.445627,288,0.329806,288,0.942991
289,0.462342,289,0.345146,289,0.925077
290,0.478774,290,0.360485,290,0.904827
291,0.494881,291,0.375825,291,0.882291
292,0.510624,292,0.389631,292,0.857527
293,0.525961,293,0.404971,293,0.830596
294,0.540855,294,0.420311,294,0.801567
295,0.555268,295,0.432583,295,0.770513
296,0.569163,296,0.446388,296,0.737513
297,0.582505,297,0.45866,297,0.70265
298,0.595261,298,0.470932,298,0.666012
299,0.607398,299,0.483204,299,0.627691
300,0.618886,300,0.493942,300,0.587785
301,0.629696,301,0.50468,301,0.546394
302,0.639799,302,0.513884,302,0.503623
303,0.649172,303,0.523087,303,0.45958
304,0.65779,304,0.532291,304,0.414376
305,0.665631,305,0.539961,305,0.368125
306,0.672675,306,0.547631,306,0.320944
307,0.678906,307,0.553767,307,0.272952
308,0.684306,308,0.558369,308,0.224271
309,0.688863,309,0.562971,309,0.175023
310,0.692565,310,0.567573,310,0.125333
311,0.695402,311,0.570641,311,0.0753268
312,0.697368,312,0.572175,312,0.0251301
313,0.698457,313,0.572175,313,-0.0251301
314,0.698667,314,0.572175,314,-0.0753268
315,0.697996,315,0.572175,315,-0.125333
316,0.696448,316,0.572175,316,-0.175023
317,0.694025,317,0.572175,317,-0.224271
318,0.690734,318,0.572175,318,-0.272952
319,0.686584,319,0.572175,319,-0.320944
320,0.681583,320,0.570641,320,-0.368125
321,0.675747,321,0.567573,321,-0.414376
322,0.669088,322,0.564505,322,-0.45958
323,0.661624,323,0.558369,323,-0.503623
324,0.653374,324,0.553767,324,-0.546394
325,0.644358,325,0.547631,325,-0.587785
326,0.634599,326,0.539961,326,-0.627691
327,0.624123,327,0.532291,327,-0.666012
328,0.612955,328,0.523087,328,-0.70265
329,0.601123,329,0.513884,329,-0.737513
330,0.588658,330,0.50468,330,-0.770513
331,0.575591,331,0.492408,331,-0.801567
332,0.561955,332,0.48167,332,-0.830596
333,0.547785,333,0.470932,333,-0.857527
334,0.533116,334,0.45866,334,-0.882291
335,0.517985,335,0.444854,335,-0.904827
336,0.50243,336,0.431049,336,-0.925077
337,0.486492,337,0.418777,337,-0.942991
338,0.470209,338,0.403437,338,-0.958522
339,0.453624,339,0.388097,339,-0.971632
340,0.436778,340,0.374291,340,-0.982287
341,0.419713,341,0.358952,341,-0.990461
342,0.402473,342,0.343612,342,-0.996134
343,0.385102,343,0.328272,343,-0.999289
344,0.367643,344,0.312932,344,-0.999921
345,0.35014,345,0.296058,345,-0.998027
346,0.332637,346,0.280718,346,-0.993611
347,0.31518,347,0.263845,347,-0.986686
348,0.297811,348,0.246971,348,-0.977268
349,0.280575,349,0.233165,349,-0.965382
350,0.263515,350,0.216291,350,-0.951057
351,0.246674,351,0.200951,351,-0.934329
352,0.230096,352,0.185612,352,-0.915241
353,0.213821,353,0.168738,353,-0.893841
354,0.197891,354,0.154932,354,-0.870184
355,0.182346,355,0.139592,355,-0.844328
356,0.167225,356,0.125786,356,-0.816339
357,0.152568,357,0.110447,357,-0.786288
358,0.138409,358,0.0966408,358,-0.754251
359,0.124786,359,0.0843689,359,-0.720309
360,0.111733,360,0.0720971,360,-0.684547
361,0.0992827,361,0.0598253,361,-0.647056
362,0.0874665,362,0.0475534,362,-0.60793
363,0.0763143,363,0.0368155,363,-0.567269
364,0.0658544,364,0.0260777,364,-0.525175
365,0.0561131,365,0.0168738,365,-0.481754
366,0.0471151,366,0.0076699,366,-0.437116
367,0.0388831,367,0,367,-0.391374
368,0.0314378,368,-0.0076699,368,-0.344643
369,0.0247981,369,-0.0138058,369,-0.297042
370,0.0189808,370,-0.0199418,370,-0.24869
371,0.0140006,371,-0.0245437,371,-0.19971
372,0.00986999,372,-0.0291456,372,-0.150226
373,0.00659945,373,-0.0322136,373,-0.100362
374,0.00419725,374,-0.0352816,374,-0.0502443
375,0.00266945,375,-0.0352816,375,-7.35E-16
376,0.00201991,376,-0.0368155,376,0.0502443
377,0.00225028,377,-0.0368155,377,0.100362
378,0.00335996,378,-0.0368155,378,0.150226
379,0.00534616,379,-0.0368155,379,0.19971
380,0.00820385,380,-0.0368155,380,0.24869
381,0.0119258,381,-0.0368155,381,0.297042
382,0.0165027,382,-0.0368155,382,0.344643
383,0.0219229,383,-0.0337476,383,0.391374
384,0.0281727,384,-0.0306796,384,0.437116
385,0.0352363,385,-0.0260777,385,0.481754
386,0.0430959,386,-0.0214757,386,0.525175
387,0.0517317,387,-0.0168738,387,0.567269
388,0.0611218,388,-0.0107379,388,0.60793
389,0.0712425,389,-0.00306796,389,0.647056
390,0.0820682,390,0.00460194,390,0.684547
391,0.0935717,391,0.0138058,391,0.720309
392,0.105724,392,0.0230097,392,0.754251
393,0.118494,393,0.0322136,393,0.786288
394,0.131849,394,0.0429515,394,0.816339
395,0.145757,395,0.0536893,395,0.844328
396,0.160181,396,0.0659612,396,0.870184
397,0.175086,397,0.076699,397,0.893841
398,0.190434,398,0.0905049,398,0.915241
399,0.206185,399,0.102777,399,0.934329
400,0.222301,400,0.118117,400,0.951057
401,0.23874,401,0.131922,401,0.965382
402,0.255461,402,0.145728,402,0.977268
403,0.272422,403,0.161068,403,0.986686
404,0.289579,404,0.176408,404,0.993611
405,0.30689,405,0.191748,405,0.998027
406,0.324311,406,0.207087,406,0.999921
407,0.341798,407,0.222427,407,0.999289
408,0.359306,408,0.239301,408,0.996134
409,0.376791,409,0.254641,409,0.990461
410,0.39421,410,0.271515,410,0.982287
411,0.411518,411,0.28532,411,0.971632
412,0.428672,412,0.302194,412,0.958522
413,0.445627,413,0.317534,413,0.942991
414,0.462342,414,0.334408,414,0.925077
415,0.478774,415,0.348214,415,0.904827
416,0.494881,416,0.365087,416,0.882291
417,0.510624,417,0.378893,417,0.857527
418,0.525961,418,0.394233,418,0.830596
419,0.540855,419,0.408039,419,0.801567
420,0.555268,420,0.421845,420,0.770513
421,0.569163,421,0.435651,421,0.737513
422,0.582505,422,0.447922,422,0.70265
423,0.595261,423,0.460194,423,0.666012
424,0.607398,424,0.472466,424,0.627691
425,0.618886,425,0.483204,425,0.587785
426,0.629696,426,0.493942,426,0.546394
427,0.639799,427,0.503146,427,0.503623
428,0.649172,428,0.51235,428,0.45958
429,0.65779,429,0.520019,429,0.414376
430,0.665631,430,0.527689,430,0.368125
431,0.672675,431,0.535359,431,0.320944
432,0.678906,432,0.541495,432,0.272952
433,0.684306,433,0.547631,433,0.224271
434,0.688863,434,0.550699,434,0.175023
435,0.692565,435,0.555301,435,0.125333
436,0.695402,436,0.558369,436,0.0753268
437,0.697368,437,0.559903,437,0.0251301
438,0.698457,438,0.561437,438,-0.0251301
439,0.698667,439,0.561437,439,-0.0753268
440,0.697996,440,0.561437,440,-0.125333
441,0.696448,441,0.561437,441,-0.175023
442,0.694025,442,0.561437,442,-0.224271
443,0.690734,443,0.561437,443,-0.272952
444,0.686584,444,0.561437,444,-0.320944
445,0.681583,445,0.559903,445,-0.368125
446,0.675747,446,0.556835,446,-0.414376
447,0.669088,447,0.552233,447,-0.45958
448,0.661624,448,0.547631,448,-0.503623
449,0.653374,449,0.541495,449,-0.546394
450,0.644358,450,0.535359,450,-0.587785
451,0.634599,451,0.527689,451,-0.627691
452,0.624123,452,0.520019,452,-0.666012
453,0.612955,453,0.510816,453,-0.70265
454,0.601123,454,0.501612,454,-0.737513
455,0.588658,455,0.492408,455,-0.770513
456,0.575591,456,0.48167,456,-0.801567
457,0.561955,457,0.470932,457,-0.830596
458,0.547785,458,0.45866,458,-0.857527
459,0.533116,459,0.446388,459,-0.882291
460,0.517985,460,0.434117,460,-0.904827
461,0.50243,461,0.420311,461,-0.925077
462,0.486492,462,0.406505,462,-0.942991
463,0.470209,463,0.392699,463,-0.958522
464,0.453624,464,0.378893,464,-0.971632
465,0.436778,465,0.363553,465,-0.982287
466,0.419713,466,0.34668,466,-0.990461
467,0.402473,467,0.332874,467,-0.996134
468,0.385102,468,0.316,468,-0.999289
469,0.367643,469,0.299126,469,-0.999921
470,0.35014,470,0.283786,470,-0.998027
471,0.332637,471,0.266913,471,-0.993611
472,0.31518,472,0.253107,472,-0.986686
473,0.297811,473,0.236233,473,-0.977268
474,0.280575,474,0.219359,474,-0.965382
475,0.263515,475,0.205553,475,-0.951057
476,0.246674,476,0.18868,476,-0.934329
477,0.230096,477,0.171806,477,-0.915241
478,0.213821,478,0.156466,478,-0.893841
479,0.197891,479,0.14266,479,-0.870184
480,0.182346,480,0.128854,480,-0.844328
481,0.167225,481,0.111981,481,-0.816339
482,0.152568,482,0.0997088,482,-0.786288
483,0.138409,483,0.0859029,483,-0.754251
484,0.124786,484,0.0720971,484,-0.720309
485,0.111733,485,0.0598253,485,-0.684547
486,0.0992827,486,0.0475534,486,-0.647056
487,0.0874665,487,0.0368155,487,-0.60793
488,0.0763143,488,0.0245437,488,-0.567269
489,0.0658544,489,0.0153398,489,-0.525175
490,0.0561131,490,0.00613592,490,-0.481754
491,0.0471151,491,-0.00306796,491,-0.437116
492,0.0388831,492,-0.0107379,492,-0.391374
493,0.0314378,493,-0.0199418,493,-0.344643
494,0.0247981,494,-0.0260777,494,-0.297042
495,0.0189808,495,-0.0306796,495,-0.24869
496,0.0140006,496,-0.0368155,496,-0.19971
497,0.00986999,497,-0.0398835,497,-0.150226
498,0.00659945,498,-0.0444854,498,-0.100362
499,0.00419725,499,-0.0460194,499,-0.0502443
500,0.00266945,500,-0.0475534,500,-9.80E-16
501,0.00201991,501,-0.0475534,501,0.0502443
502,0.00225028,502,-0.0475534,502,0.100362
503,0.00335996,503,-0.0475534,503,0.150226
504,0.00534616,504,-0.0475534,504,0.19971
