Time - Theta_sim,Amplitude - Theta_sim,Time - Theta_Motor,Amplitude - Theta_Motor,Time - Input V,Amplitude - Input V
0,0,0,0,0,0
1,0.000410336,1,0,1,0.064
2,0.00149198,2,0,2,0.128
3,0.00341092,3,0,3,0.192
4,0.0062727,4,0,4,0.256
5,0.0101445,5,0,5,0.32
6,0.0150689,6,0,6,0.384
7,0.0210733,7,0,7,0.448
8,0.0281747,8,0.00460194,8,0.512
9,0.0363842,9,0.00920388,9,0.576
10,0.0457088,10,0.0138058,10,0.64
11,0.056153,11,0.0199418,11,0.704
12,0.0677195,12,0.0276117,12,0.768
13,0.0804102,13,0.0352816,13,0.832
14,0.0942262,14,0.0460194,14,0.896
15,0.109168,15,0.0567573,15,0.96
16,0.124929,16,0.0674952,16,0.976
17,0.1408,17,0.082835,17,0.912
18,0.156331,18,0.0951068,18,0.848
19,0.171235,19,0.108913,19,0.784
20,0.185331,20,0.122718,20,0.72
21,0.198501,21,0.136524,21,0.656
22,0.210674,22,0.148796,22,0.592
23,0.2218,23,0.158,23,0.528
24,0.231852,24,0.168738,24,0.464
25,0.240809,25,0.177942,25,0.4
26,0.24866,26,0.185612,26,0.336
27,0.255398,27,0.193282,27,0.272
28,0.261016,28,0.199418,28,0.208
29,0.265513,29,0.204019,29,0.144
30,0.268885,30,0.207087,30,0.08
31,0.271133,31,0.210155,31,0.016
32,0.272255,32,0.210155,32,-0.048
33,0.27225,33,0.210155,33,-0.112
34,0.271119,34,0.210155,34,-0.176
35,0.268861,35,0.210155,35,-0.24
36,0.265475,36,0.210155,36,-0.304
37,0.260963,37,0.210155,37,-0.368
38,0.255323,38,0.208621,38,-0.432
39,0.248556,39,0.205553,39,-0.496
40,0.240662,40,0.200951,40,-0.56
41,0.23164,41,0.194816,41,-0.624
42,0.221491,42,0.18868,42,-0.688
43,0.210215,43,0.18101,43,-0.752
44,0.197812,44,0.171806,44,-0.816
45,0.184281,45,0.162602,45,-0.88
46,0.169623,46,0.151864,46,-0.944
47,0.153941,47,0.139592,47,-0.992
48,0.138017,48,0.12732,48,-0.928
49,0.122349,49,0.111981,49,-0.864
50,0.107256,50,0.0981748,50,-0.8
51,0.0929374,51,0.0859029,51,-0.736
52,0.0795224,52,0.0720971,52,-0.672
53,0.0670923,53,0.0598253,53,-0.608
54,0.0556989,54,0.0490874,54,-0.544
55,0.0453751,55,0.0383495,55,-0.48
56,0.036142,56,0.0291456,56,-0.416
57,0.028013,57,0.0199418,57,-0.352
58,0.0209963,58,0.0138058,58,-0.288
59,0.0150976,59,0.0076699,59,-0.224
60,0.0103202,60,0.00153398,60,-0.16
61,0.00666621,61,-0.00153398,61,-0.096
62,0.00413712,62,-0.00460194,62,-0.032
63,0.00273379,63,-0.00613592,63,0.032
64,0.00245678,64,-0.0076699,64,0.096
65,0.00330644,65,-0.0076699,65,0.16
66,0.005283,66,-0.0076699,66,0.224
67,0.0083866,67,-0.0076699,67,0.288
68,0.0126173,68,-0.0076699,68,0.352
69,0.0179753,69,-0.00613592,69,0.416
70,0.0244604,70,-0.00306796,70,0.48
71,0.0320729,71,0.00153398,71,0.544
72,0.0408126,72,0.00613592,72,0.608
73,0.0506795,73,0.0122718,73,0.672
74,0.0616738,74,0.0199418,74,0.736
75,0.0737953,75,0.0291456,75,0.8
76,0.0870442,76,0.0368155,76,0.864
77,0.10142,77,0.0490874,77,0.928
78,0.116924,78,0.0582913,78,0.992
79,0.132836,79,0.0720971,79,0.944
80,0.148599,80,0.0859029,80,0.88
81,0.163856,81,0.0997088,81,0.816
82,0.17838,82,0.113515,82,0.752
83,0.192029,83,0.125786,83,0.688
84,0.204711,84,0.139592,84,0.624
85,0.216367,85,0.15033,85,0.56
86,0.22696,86,0.161068,86,0.496
87,0.236467,87,0.170272,87,0.432
88,0.244873,88,0.179476,88,0.368
89,0.252168,89,0.187146,89,0.304
90,0.258347,90,0.193282,90,0.24
91,0.263405,91,0.199418,91,0.176
92,0.26734,92,0.202485,92,0.112
93,0.27015,93,0.205553,93,0.048
94,0.271835,94,0.207087,94,-0.016
95,0.272393,95,0.208621,95,-0.08
96,0.271825,96,0.208621,96,-0.144
97,0.270131,97,0.208621,97,-0.208
98,0.267309,98,0.208621,98,-0.272
99,0.26336,99,0.208621,99,-0.336
100,0.258284,100,0.207087,100,-0.4
101,0.25208,101,0.204019,101,-0.464
102,0.24475,102,0.199418,102,-0.528
103,0.236292,103,0.194816,103,-0.592
104,0.226707,104,0.18868,104,-0.656
105,0.215994,105,0.182544,105,-0.72
106,0.204155,106,0.174874,106,-0.784
107,0.191188,107,0.164136,107,-0.848
108,0.177093,108,0.154932,108,-0.912
109,0.161872,109,0.14266,109,-0.976
110,0.146036,110,0.130388,110,-0.96
111,0.130219,111,0.116583,111,-0.896
112,0.114826,112,0.102777,112,-0.832
113,0.100111,113,0.0874369,113,-0.768
114,0.0862393,114,0.0751651,114,-0.704
115,0.0733133,115,0.0628932,115,-0.64
116,0.0613993,116,0.0506214,116,-0.576
117,0.0505394,117,0.0398835,117,-0.512
118,0.0407601,118,0.0306796,118,-0.448
119,0.0320785,119,0.0214757,119,-0.384
120,0.0245053,120,0.0138058,120,-0.32
121,0.0180474,121,0.0076699,121,-0.256
122,0.0127091,122,0.00153398,122,-0.192
123,0.00849334,123,-0.00306796,123,-0.128
124,0.00540177,124,-0.00613592,124,-0.064
125,0.00343552,125,-0.00920388,125,0
126,0.00259533,126,-0.0107379,126,0.064
127,0.00288164,127,-0.0107379,127,0.128
128,0.00429474,128,-0.0107379,128,0.192
129,0.00683481,129,-0.0107379,129,0.256
130,0.010502,130,-0.0107379,130,0.32
131,0.0152963,131,-0.0107379,131,0.384
132,0.0212179,132,-0.0076699,132,0.448
133,0.0282667,133,-0.00306796,133,0.512
134,0.0364427,134,0.00153398,134,0.576
135,0.045746,135,0.0076699,135,0.64
136,0.0561767,136,0.0138058,136,0.704
137,0.0677346,137,0.0214757,137,0.768
138,0.0804198,138,0.0306796,138,0.832
139,0.0942322,139,0.0414175,139,0.896
140,0.109172,140,0.0506214,140,0.96
141,0.124931,141,0.0644272,141,0.976
142,0.140802,142,0.076699,142,0.912
143,0.156332,143,0.0905049,143,0.848
144,0.171236,144,0.104311,144,0.784
145,0.185331,145,0.118117,145,0.72
146,0.198502,146,0.131922,146,0.656
147,0.210674,147,0.14266,147,0.592
148,0.2218,148,0.153398,148,0.528
149,0.231852,149,0.164136,149,0.464
150,0.240809,150,0.17334,150,0.4
151,0.24866,151,0.18101,151,0.336
152,0.255398,152,0.187146,152,0.272
153,0.261016,153,0.194816,153,0.208
154,0.265513,154,0.197884,154,0.144
155,0.268885,155,0.202485,155,0.08
156,0.271133,156,0.205553,156,0.016
157,0.272255,157,0.205553,157,-0.048
158,0.27225,158,0.207087,158,-0.112
159,0.271119,159,0.207087,159,-0.176
160,0.268861,160,0.207087,160,-0.24
161,0.265475,161,0.207087,161,-0.304
162,0.260963,162,0.207087,162,-0.368
163,0.255323,163,0.204019,163,-0.432
164,0.248556,164,0.200951,164,-0.496
165,0.240662,165,0.197884,165,-0.56
166,0.23164,166,0.191748,166,-0.624
167,0.221491,167,0.185612,167,-0.688
168,0.210215,168,0.177942,168,-0.752
169,0.197812,169,0.168738,169,-0.816
170,0.184281,170,0.159534,170,-0.88
171,0.169623,171,0.147262,171,-0.944
172,0.153941,172,0.136524,172,-0.992
173,0.138017,173,0.122718,173,-0.928
174,0.122349,174,0.108913,174,-0.864
175,0.107256,175,0.0951068,175,-0.8
176,0.0929374,176,0.081301,176,-0.736
177,0.0795224,177,0.0690291,177,-0.672
178,0.0670923,178,0.0567573,178,-0.608
179,0.0556989,179,0.0460194,179,-0.544
180,0.0453751,180,0.0337476,180,-0.48
181,0.036142,181,0.0260777,181,-0.416
182,0.028013,182,0.0168738,182,-0.352
183,0.0209963,183,0.00920388,183,-0.288
184,0.0150976,184,0.00306796,184,-0.224
185,0.0103202,185,-0.00153398,185,-0.16
186,0.00666621,186,-0.00613592,186,-0.096
187,0.00413712,187,-0.00920388,187,-0.032
188,0.00273379,188,-0.0107379,188,0.032
189,0.00245678,189,-0.0107379,189,0.096
190,0.00330644,190,-0.0107379,190,0.16
191,0.005283,191,-0.0107379,191,0.224
192,0.0083866,192,-0.0107379,192,0.288
193,0.0126173,193,-0.0107379,193,0.352
194,0.0179753,194,-0.00920388,194,0.416
195,0.0244604,195,-0.00613592,195,0.48
196,0.0320729,196,-0.00153398,196,0.544
197,0.0408126,197,0.00306796,197,0.608
198,0.0506795,198,0.00920388,198,0.672
199,0.0616738,199,0.0168738,199,0.736
200,0.0737953,200,0.0260777,200,0.8
201,0.0870442,201,0.0352816,201,0.864
202,0.10142,202,0.0460194,202,0.928
203,0.116924,203,0.0567573,203,0.992
204,0.132836,204,0.0690291,204,0.944
205,0.148599,205,0.0843689,205,0.88
206,0.163856,206,0.0966408,206,0.816
207,0.17838,207,0.110447,207,0.752
208,0.192029,208,0.124252,208,0.688
209,0.204711,209,0.136524,209,0.624
210,0.216367,210,0.147262,210,0.56
211,0.22696,211,0.158,211,0.496
212,0.236467,212,0.167204,212,0.432
213,0.244873,213,0.176408,213,0.368
214,0.252168,214,0.184078,214,0.304
215,0.258347,215,0.190214,215,0.24
216,0.263405,216,0.19635,216,0.176
217,0.26734,217,0.199418,217,0.112
218,0.27015,218,0.202485,218,0.048
219,0.271835,219,0.204019,219,-0.016
220,0.272393,220,0.205553,220,-0.08
221,0.271825,221,0.205553,221,-0.144
222,0.270131,222,0.205553,222,-0.208
223,0.267309,223,0.205553,223,-0.272
224,0.26336,224,0.205553,224,-0.336
225,0.258284,225,0.205553,225,-0.4
226,0.25208,226,0.202485,226,-0.464
227,0.24475,227,0.197884,227,-0.528
228,0.236292,228,0.193282,228,-0.592
229,0.226707,229,0.187146,229,-0.656
230,0.215994,230,0.179476,230,-0.72
231,0.204155,231,0.171806,231,-0.784
232,0.191188,232,0.164136,232,-0.848
233,0.177093,233,0.153398,233,-0.912
234,0.161872,234,0.141126,234,-0.976
235,0.146036,235,0.12732,235,-0.96
236,0.130219,236,0.115049,236,-0.896
237,0.114826,237,0.101243,237,-0.832
238,0.100111,238,0.0874369,238,-0.768
239,0.0862393,239,0.0751651,239,-0.704
240,0.0733133,240,0.0613592,240,-0.64
241,0.0613993,241,0.0490874,241,-0.576
242,0.0505394,242,0.0383495,242,-0.512
243,0.0407601,243,0.0291456,243,-0.448
244,0.0320785,244,0.0214757,244,-0.384
245,0.0245053,245,0.0122718,245,-0.32
246,0.0180474,246,0.00613592,246,-0.256
247,0.0127091,247,0,247,-0.192
248,0.00849334,248,-0.00460194,248,-0.128
249,0.00540177,249,-0.0076699,249,-0.064
250,0.00343552,250,-0.0107379,250,0
251,0.00259533,251,-0.0107379,251,0.064
252,0.00288164,252,-0.0122718,252,0.128
253,0.00429474,253,-0.0122718,253,0.192
254,0.00683481,254,-0.0122718,254,0.256
255,0.010502,255,-0.0122718,255,0.32
256,0.0152963,256,-0.0122718,256,0.384
257,0.0212179,257,-0.00920388,257,0.448
258,0.0282667,258,-0.00460194,258,0.512
259,0.0364427,259,0,259,0.576
260,0.045746,260,0.00613592,260,0.64
261,0.0561767,261,0.0122718,261,0.704
262,0.0677346,262,0.0214757,262,0.768
263,0.0804198,263,0.0291456,263,0.832
264,0.0942322,264,0.0398835,264,0.896
265,0.109172,265,0.0506214,265,0.96
266,0.124931,266,0.0628932,266,0.976
267,0.140802,267,0.076699,267,0.912
268,0.156332,268,0.0889709,268,0.848
269,0.171236,269,0.104311,269,0.784
270,0.185331,270,0.118117,270,0.72
271,0.198502,271,0.130388,271,0.656
272,0.210674,272,0.141126,272,0.592
273,0.2218,273,0.151864,273,0.528
274,0.231852,274,0.162602,274,0.464
275,0.240809,275,0.171806,275,0.4
276,0.24866,276,0.179476,276,0.336
277,0.255398,277,0.185612,277,0.272
278,0.261016,278,0.191748,278,0.208
279,0.265513,279,0.197884,279,0.144
280,0.268885,280,0.200951,280,0.08
281,0.271133,281,0.204019,281,0.016
282,0.272255,282,0.204019,282,-0.048
283,0.27225,283,0.205553,283,-0.112
284,0.271119,284,0.205553,284,-0.176
285,0.268861,285,0.205553,285,-0.24
286,0.265475,286,0.205553,286,-0.304
287,0.260963,287,0.205553,287,-0.368
288,0.255323,288,0.202485,288,-0.432
289,0.248556,289,0.199418,289,-0.496
290,0.240662,290,0.194816,290,-0.56
291,0.23164,291,0.190214,291,-0.624
292,0.221491,292,0.184078,292,-0.688
293,0.210215,293,0.176408,293,-0.752
294,0.197812,294,0.167204,294,-0.816
295,0.184281,295,0.158,295,-0.88
296,0.169623,296,0.147262,296,-0.944
297,0.153941,297,0.133456,297,-0.992
298,0.138017,298,0.121184,298,-0.928
299,0.122349,299,0.107379,299,-0.864
300,0.107256,300,0.0935728,300,-0.8
301,0.0929374,301,0.081301,301,-0.736
302,0.0795224,302,0.0674952,302,-0.672
303,0.0670923,303,0.0536893,303,-0.608
304,0.0556989,304,0.0429515,304,-0.544
305,0.0453751,305,0.0322136,305,-0.48
306,0.036142,306,0.0230097,306,-0.416
307,0.028013,307,0.0153398,307,-0.352
308,0.0209963,308,0.0076699,308,-0.288
309,0.0150976,309,0.00153398,309,-0.224
310,0.0103202,310,-0.00306796,310,-0.16
311,0.00666621,311,-0.0076699,311,-0.096
312,0.00413712,312,-0.0107379,312,-0.032
313,0.00273379,313,-0.0122718,313,0.032
314,0.00245678,314,-0.0122718,314,0.096
315,0.00330644,315,-0.0122718,315,0.16
316,0.005283,316,-0.0122718,316,0.224
317,0.0083866,317,-0.0122718,317,0.288
318,0.0126173,318,-0.0122718,318,0.352
319,0.0179753,319,-0.0122718,319,0.416
320,0.0244604,320,-0.00920388,320,0.48
321,0.0320729,321,-0.00306796,321,0.544
322,0.0408126,322,0.00153398,322,0.608
323,0.0506795,323,0.0076699,323,0.672
324,0.0616738,324,0.0153398,324,0.736
325,0.0737953,325,0.0245437,325,0.8
326,0.0870442,326,0.0337476,326,0.864
327,0.10142,327,0.0444854,327,0.928
328,0.116924,328,0.0552233,328,0.992
329,0.132836,329,0.0674952,329,0.944
330,0.148599,330,0.081301,330,0.88
331,0.163856,331,0.0951068,331,0.816
332,0.17838,332,0.108913,332,0.752
333,0.192029,333,0.121184,333,0.688
334,0.204711,334,0.133456,334,0.624
335,0.216367,335,0.144194,335,0.56
336,0.22696,336,0.154932,336,0.496
337,0.236467,337,0.164136,337,0.432
338,0.244873,338,0.17334,338,0.368
339,0.252168,339,0.18101,339,0.304
340,0.258347,340,0.187146,340,0.24
341,0.263405,341,0.193282,341,0.176
342,0.26734,342,0.19635,342,0.112
343,0.27015,343,0.199418,343,0.048
344,0.271835,344,0.202485,344,-0.016
345,0.272393,345,0.202485,345,-0.08
346,0.271825,346,0.202485,346,-0.144
347,0.270131,347,0.202485,347,-0.208
348,0.267309,348,0.202485,348,-0.272
349,0.26336,349,0.202485,349,-0.336
350,0.258284,350,0.202485,350,-0.4
351,0.25208,351,0.199418,351,-0.464
352,0.24475,352,0.194816,352,-0.528
353,0.236292,353,0.190214,353,-0.592
354,0.226707,354,0.184078,354,-0.656
355,0.215994,355,0.176408,355,-0.72
356,0.204155,356,0.170272,356,-0.784
357,0.191188,357,0.161068,357,-0.848
358,0.177093,358,0.15033,358,-0.912
359,0.161872,359,0.138058,359,-0.976
360,0.146036,360,0.12732,360,-0.96
361,0.130219,361,0.111981,361,-0.896
362,0.114826,362,0.0981748,362,-0.832
363,0.100111,363,0.0843689,363,-0.768
364,0.0862393,364,0.0720971,364,-0.704
365,0.0733133,365,0.0598253,365,-0.64
366,0.0613993,366,0.0475534,366,-0.576
367,0.0505394,367,0.0368155,367,-0.512
368,0.0407601,368,0.0260777,368,-0.448
369,0.0320785,369,0.0168738,369,-0.384
370,0.0245053,370,0.00920388,370,-0.32
371,0.0180474,371,0.00306796,371,-0.256
372,0.0127091,372,-0.00306796,372,-0.192
373,0.00849334,373,-0.0076699,373,-0.128
374,0.00540177,374,-0.0107379,374,-0.064
375,0.00343552,375,-0.0138058,375,0
376,0.00259533,376,-0.0138058,376,0.064
377,0.00288164,377,-0.0153398,377,0.128
378,0.00429474,378,-0.0153398,378,0.192
379,0.00683481,379,-0.0153398,379,0.256
380,0.010502,380,-0.0153398,380,0.32
381,0.0152963,381,-0.0153398,381,0.384
382,0.0212179,382,-0.0122718,382,0.448
383,0.0282667,383,-0.0076699,383,0.512
384,0.0364427,384,-0.00306796,384,0.576
385,0.045746,385,0.00306796,385,0.64
386,0.0561767,386,0.0107379,386,0.704
387,0.0677346,387,0.0184078,387,0.768
388,0.0804198,388,0.0276117,388,0.832
389,0.0942322,389,0.0368155,389,0.896
390,0.109172,390,0.0475534,390,0.96
391,0.124931,391,0.0598253,391,0.976
392,0.140802,392,0.0720971,392,0.912
393,0.156332,393,0.0859029,393,0.848
394,0.171236,394,0.0997088,394,0.784
395,0.185331,395,0.113515,395,0.72
396,0.198502,396,0.12732,396,0.656
397,0.210674,397,0.138058,397,0.592
398,0.2218,398,0.148796,398,0.528
399,0.231852,399,0.159534,399,0.464
400,0.240809,400,0.167204,400,0.4
401,0.24866,401,0.176408,401,0.336
402,0.255398,402,0.182544,402,0.272
403,0.261016,403,0.18868,403,0.208
404,0.265513,404,0.193282,404,0.144
405,0.268885,405,0.19635,405,0.08
406,0.271133,406,0.199418,406,0.016
407,0.272255,407,0.200951,407,-0.048
408,0.27225,408,0.200951,408,-0.112
409,0.271119,409,0.200951,409,-0.176
410,0.268861,410,0.200951,410,-0.24
411,0.265475,411,0.200951,411,-0.304
412,0.260963,412,0.200951,412,-0.368
413,0.255323,413,0.199418,413,-0.432
414,0.248556,414,0.19635,414,-0.496
415,0.240662,415,0.191748,415,-0.56
416,0.23164,416,0.185612,416,-0.624
417,0.221491,417,0.179476,417,-0.688
418,0.210215,418,0.171806,418,-0.752
419,0.197812,419,0.164136,419,-0.816
420,0.184281,420,0.153398,420,-0.88
421,0.169623,421,0.14266,421,-0.944
422,0.153941,422,0.130388,422,-0.992
423,0.138017,423,0.118117,423,-0.928
424,0.122349,424,0.102777,424,-0.864
425,0.107256,425,0.0889709,425,-0.8
426,0.0929374,426,0.076699,426,-0.736
427,0.0795224,427,0.0628932,427,-0.672
428,0.0670923,428,0.0506214,428,-0.608
429,0.0556989,429,0.0398835,429,-0.544
430,0.0453751,430,0.0291456,430,-0.48
431,0.036142,431,0.0184078,431,-0.416
432,0.028013,432,0.0107379,432,-0.352
433,0.0209963,433,0.00460194,433,-0.288
434,0.0150976,434,-0.00306796,434,-0.224
435,0.0103202,435,-0.0076699,435,-0.16
436,0.00666621,436,-0.0107379,436,-0.096
437,0.00413712,437,-0.0153398,437,-0.032
438,0.00273379,438,-0.0168738,438,0.032
439,0.00245678,439,-0.0168738,439,0.096
440,0.00330644,440,-0.0168738,440,0.16
441,0.005283,441,-0.0168738,441,0.224
442,0.0083866,442,-0.0168738,442,0.288
443,0.0126173,443,-0.0168738,443,0.352
444,0.0179753,444,-0.0153398,444,0.416
445,0.0244604,445,-0.0122718,445,0.48
446,0.0320729,446,-0.0076699,446,0.544
447,0.0408126,447,-0.00306796,447,0.608
448,0.0506795,448,0.00460194,448,0.672
449,0.0616738,449,0.0122718,449,0.736
450,0.0737953,450,0.0199418,450,0.8
451,0.0870442,451,0.0291456,451,0.864
452,0.10142,452,0.0398835,452,0.928
453,0.116924,453,0.0506214,453,0.992
454,0.132836,454,0.0644272,454,0.944
455,0.148599,455,0.076699,455,0.88
456,0.163856,456,0.0905049,456,0.816
457,0.17838,457,0.104311,457,0.752
458,0.192029,458,0.118117,458,0.688
459,0.204711,459,0.130388,459,0.624
460,0.216367,460,0.14266,460,0.56
461,0.22696,461,0.151864,461,0.496
462,0.236467,462,0.161068,462,0.432
463,0.244873,463,0.170272,463,0.368
464,0.252168,464,0.177942,464,0.304
465,0.258347,465,0.184078,465,0.24
466,0.263405,466,0.190214,466,0.176
467,0.26734,467,0.193282,467,0.112
468,0.27015,468,0.19635,468,0.048
469,0.271835,469,0.199418,469,-0.016
470,0.272393,470,0.199418,470,-0.08
471,0.271825,471,0.199418,471,-0.144
472,0.270131,472,0.199418,472,-0.208
473,0.267309,473,0.199418,473,-0.272
474,0.26336,474,0.199418,474,-0.336
475,0.258284,475,0.199418,475,-0.4
476,0.25208,476,0.19635,476,-0.464
477,0.24475,477,0.191748,477,-0.528
478,0.236292,478,0.187146,478,-0.592
479,0.226707,479,0.18101,479,-0.656
480,0.215994,480,0.17334,480,-0.72
481,0.204155,481,0.16567,481,-0.784
482,0.191188,482,0.158,482,-0.848
483,0.177093,483,0.145728,483,-0.912
484,0.161872,484,0.13499,484,-0.976
485,0.146036,485,0.122718,485,-0.96
486,0.130219,486,0.108913,486,-0.896
487,0.114826,487,0.0951068,487,-0.832
488,0.100111,488,0.079767,488,-0.768
489,0.0862393,489,0.0674952,489,-0.704
490,0.0733133,490,0.0552233,490,-0.64
491,0.0613993,491,0.0429515,491,-0.576
492,0.0505394,492,0.0322136,492,-0.512
493,0.0407601,493,0.0214757,493,-0.448
494,0.0320785,494,0.0122718,494,-0.384
495,0.0245053,495,0.00613592,495,-0.32
496,0.0180474,496,-0.00153398,496,-0.256
497,0.0127091,497,-0.0076699,497,-0.192
498,0.00849334,498,-0.0122718,498,-0.128
499,0.00540177,499,-0.0153398,499,-0.064
500,0.00343552,500,-0.0168738,500,0
501,0.00259533,501,-0.0184078,501,0.064
502,0.00288164,502,-0.0184078,502,0.128
503,0.00429474,503,-0.0184078,503,0.192
504,0.00683481,504,-0.0184078,504,0.256
505,0.010502,505,-0.0184078,505,0.32
506,0.0152963,506,-0.0184078,506,0.384
507,0.0212179,507,-0.0168738,507,0.448
508,0.0282667,508,-0.0122718,508,0.512
509,0.0364427,509,-0.0076699,509,0.576
510,0.045746,510,-0.00153398,510,0.64
511,0.0561767,511,0.00613592,511,0.704
512,0.0677346,512,0.0138058,512,0.768
513,0.0804198,513,0.0214757,513,0.832
514,0.0942322,514,0.0322136,514,0.896
515,0.109172,515,0.0444854,515,0.96
516,0.124931,516,0.0552233,516,0.976
517,0.140802,517,0.0674952,517,0.912
518,0.156332,518,0.081301,518,0.848
519,0.171236,519,0.0966408,519,0.784
520,0.185331,520,0.108913,520,0.72
521,0.198502,521,0.121184,521,0.656
522,0.210674,522,0.133456,522,0.592
523,0.2218,523,0.144194,523,0.528
524,0.231852,524,0.153398,524,0.464
525,0.240809,525,0.164136,525,0.4
526,0.24866,526,0.170272,526,0.336
527,0.255398,527,0.177942,527,0.272
528,0.261016,528,0.184078,528,0.208
529,0.265513,529,0.18868,529,0.144
530,0.268885,530,0.193282,530,0.08
531,0.271133,531,0.194816,531,0.016
532,0.272255,532,0.19635,532,-0.048
533,0.27225,533,0.19635,533,-0.112
534,0.271119,534,0.19635,534,-0.176
535,0.268861,535,0.19635,535,-0.24
536,0.265475,536,0.19635,536,-0.304
537,0.260963,537,0.19635,537,-0.368
538,0.255323,538,0.194816,538,-0.432
539,0.248556,539,0.191748,539,-0.496
540,0.240662,540,0.187146,540,-0.56
541,0.23164,541,0.18101,541,-0.624
542,0.221491,542,0.174874,542,-0.688
543,0.210215,543,0.167204,543,-0.752
544,0.197812,544,0.158,544,-0.816
